33.858050 0.0
33.865550 0.0
33.873050 0.0
33.880550 0.0
33.888050 0.0
33.895550 1.0
33.903050 0.0
33.910550 0.0
33.918050 0.0
33.925550 0.0
33.933050 0.0
33.940550 0.0
33.948050 0.0
33.955550 0.0
33.963050 0.0
33.970550 0.0
33.978050 1.0
33.985550 0.0
33.993050 0.0
34.000550 0.0
34.008050 0.0
34.015550 0.0
34.023050 1.0
34.030550 0.0
34.038050 0.0
34.045550 0.0
34.053050 2.0
34.060550 1.0
34.068050 0.0
34.075550 0.0
34.083050 1.0
34.090550 0.0
34.098050 0.0
34.105550 0.0
34.113050 0.0
34.120550 0.0
34.128050 0.0
34.135550 0.0
34.143050 0.0
34.150550 0.0
34.158050 1.0
34.165550 0.0
34.173050 1.0
34.180550 0.0
34.188050 1.0
34.195550 0.0
34.203050 2.0
34.210550 0.0
34.218050 0.0
34.225550 0.0
34.233050 0.0
34.240550 0.0
34.248050 2.0
34.255550 0.0
34.263050 0.0
34.270550 0.0
34.278050 1.0
34.285550 0.0
34.293050 2.0
34.300550 0.0
34.308050 0.0
34.315550 0.0
34.323050 1.0
34.330550 0.0
34.338050 0.0
34.345550 0.0
34.353050 0.0
34.360550 0.0
34.368050 0.0
34.375550 0.0
34.383050 1.0
34.390550 0.0
34.398050 2.0
34.405550 0.0
34.413050 0.0
34.420550 1.0
34.428050 0.0
34.435550 0.0
34.443050 0.0
34.450550 0.0
34.458050 0.0
34.465550 0.0
34.473050 1.0
34.480550 0.0
34.488050 0.0
34.495550 0.0
34.503050 0.0
34.510550 0.0
34.518050 0.0
34.525550 0.0
34.533050 1.0
34.540550 0.0
34.548050 0.0
34.555550 0.0
34.563050 2.0
34.570550 1.0
34.578050 1.0
34.585550 2.0
34.593050 0.0
34.600550 0.0
34.608050 1.0
34.615550 1.0
34.623050 1.0
34.630550 1.0
34.638050 2.0
34.645550 1.0
34.653050 1.0
34.660550 0.0
34.668050 2.0
34.675550 4.0
34.683050 1.0
34.690550 0.0
34.698050 3.0
34.705550 1.0
34.713050 1.0
34.720550 3.0
34.728050 4.0
34.735550 4.0
34.743050 1.0
34.750550 1.0
34.758050 1.0
34.765550 3.0
34.773050 2.0
34.780550 4.0
34.788050 1.0
34.795550 1.0
34.803050 2.0
34.810550 4.0
34.818050 3.0
34.825550 4.0
34.833050 8.0
34.840550 3.0
34.848050 2.0
34.855550 4.0
34.863050 6.0
34.870550 6.0
34.878050 4.0
34.885550 4.0
34.893050 7.0
34.900550 6.0
34.908050 3.0
34.915550 7.0
34.923050 4.0
34.930550 10.0
34.938050 11.0
34.945550 10.0
34.953050 14.0
34.960550 11.0
34.968050 18.0
34.975550 20.0
34.983050 16.0
34.990550 16.0
34.998050 23.0
35.005550 29.0
35.013050 33.0
35.020550 45.0
35.028050 41.0
35.035550 42.0
35.043050 60.0
35.050550 76.0
35.058050 96.0
35.065550 110.0
35.073050 143.0
35.080550 200.0
35.088050 269.0
35.095550 313.0
35.103050 416.0
35.110550 519.0
35.118050 707.0
35.125550 931.0
35.133050 1200.0
35.140550 1437.0
35.148050 1565.0
35.155550 1493.0
35.163050 1354.0
35.170550 1208.0
35.178050 981.0
35.185550 786.0
35.193050 578.0
35.200550 434.0
35.208050 333.0
35.215550 228.0
35.223050 206.0
35.230550 130.0
35.238050 119.0
35.245550 90.0
35.253050 90.0
35.260550 104.0
35.268050 107.0
35.275550 162.0
35.283050 215.0
35.290550 259.0
35.298050 354.0
35.305550 527.0
35.313050 712.0
35.320550 884.0
35.328050 1300.0
35.335550 1854.0
35.343050 2569.0
35.350550 2909.0
35.358050 2658.0
35.365550 2090.0
35.373050 1512.0
35.380550 954.0
35.388050 593.0
35.395550 333.0
35.403050 199.0
35.410550 125.0
35.418050 108.0
35.425550 58.0
35.433050 51.0
35.440550 52.0
35.448050 45.0
35.455550 27.0
35.463050 35.0
35.470550 28.0
35.478050 16.0
35.485550 19.0
35.493050 23.0
35.500550 19.0
35.508050 11.0
35.515550 19.0
35.523050 13.0
35.530550 10.0
35.538050 10.0
35.545550 11.0
35.553050 13.0
35.560550 11.0
35.568050 10.0
35.575550 11.0
35.583050 6.0
35.590550 6.0
35.598050 10.0
35.605550 7.0
35.613050 5.0
35.620550 5.0
35.628050 14.0
35.635550 8.0
35.643050 14.0
35.650550 7.0
35.658050 8.0
35.665550 2.0
35.673050 5.0
35.680550 6.0
35.688050 6.0
35.695550 5.0
35.703050 11.0
35.710550 14.0
35.718050 9.0
35.725550 8.0
35.733050 10.0
35.740550 2.0
35.748050 7.0
35.755550 4.0
35.763050 5.0
35.770550 4.0
35.778050 7.0
35.785550 13.0
35.793050 6.0
35.800550 7.0
35.808050 2.0
35.815550 8.0
35.823050 6.0
35.830550 4.0
35.838050 8.0
35.845550 11.0
35.853050 8.0
35.860550 5.0
35.868050 11.0
35.875550 7.0
35.883050 11.0
35.890550 14.0
35.898050 8.0
35.905550 17.0
35.913050 19.0
35.920550 17.0
35.928050 18.0
35.935550 29.0
35.943050 22.0
35.950550 45.0
35.958050 36.0
35.965550 47.0
35.973050 55.0
35.980550 62.0
35.988050 74.0
35.995550 130.0
36.003050 178.0
36.010550 296.0
36.018050 499.0
36.025550 804.0
36.033050 1704.0
36.040550 3434.0
36.048050 5661.0
36.055550 5471.0
36.063050 3068.0
36.070550 1243.0
36.078050 509.0
36.085550 262.0
36.093050 158.0
36.100550 100.0
36.108050 77.0
36.115550 54.0
36.123050 63.0
36.130550 33.0
36.138050 28.0
36.145550 11.0
36.153050 19.0
36.160550 7.0
36.168050 10.0
36.175550 9.0
36.183050 3.0
36.190550 11.0
36.198050 9.0
36.205550 2.0
36.213050 6.0
36.220550 3.0
36.228050 2.0
36.235550 4.0
36.243050 8.0
36.250550 0.0
36.258050 4.0
36.265550 2.0
36.273050 5.0
36.280550 3.0
36.288050 1.0
36.295550 1.0
36.303050 3.0
36.310550 2.0
36.318050 1.0
36.325550 1.0
36.333050 0.0
36.340550 2.0
36.348050 2.0
36.355550 0.0
36.363050 1.0
36.370550 1.0
36.378050 1.0
36.385550 0.0
36.393050 1.0
36.400550 1.0
36.408050 1.0
36.415550 0.0
36.423050 1.0
36.430550 1.0
36.438050 2.0
36.445550 1.0
36.453050 0.0
36.460550 0.0
36.468050 0.0
36.475550 0.0
36.483050 1.0
36.490550 0.0
36.498050 1.0
36.505550 0.0
36.513050 1.0
36.520550 0.0
36.528050 0.0
36.535550 0.0
36.543050 1.0
36.550550 0.0
36.558050 0.0
36.565550 0.0
36.573050 0.0
36.580550 0.0
36.588050 0.0
36.595550 0.0
36.603050 0.0
36.610550 2.0
36.618050 0.0
36.625550 1.0
36.633050 0.0
36.640550 0.0
36.648050 0.0
36.655550 0.0
36.663050 1.0
36.670550 0.0
36.678050 0.0
36.685550 0.0
36.693050 0.0
36.700550 1.0
36.708050 1.0
36.715550 0.0
36.723050 1.0
36.730550 0.0
36.738050 1.0
36.745550 0.0
36.753050 0.0
36.760550 0.0
36.768050 0.0
36.775550 0.0
36.783050 2.0
36.790550 0.0
36.798050 0.0
36.805550 0.0
36.813050 2.0
36.820550 1.0
36.828050 0.0
36.835550 1.0
36.843050 1.0
