16.75500 881.0
16.75700 882.0
16.75900 888.0
16.76100 922.0
16.76300 898.0
16.76500 916.0
16.76700 972.0
16.76900 904.0
16.77100 949.0
16.77300 974.0
16.77500 1016.0
16.77700 997.0
16.77900 997.0
16.78100 1008.0
16.78300 1019.0
16.78500 1029.0
16.78700 1050.0
16.78900 1069.0
16.79100 1083.0
16.79300 1057.0
16.79500 1035.0
16.79700 1050.0
16.79900 1197.0
16.80100 1151.0
16.80300 1222.0
16.80500 1144.0
16.80700 1199.0
16.80900 1159.0
16.81100 1237.0
16.81300 1208.0
16.81500 1249.0
16.81700 1224.0
16.81900 1270.0
16.82100 1244.0
16.82300 1338.0
16.82500 1341.0
16.82700 1317.0
16.82900 1339.0
16.83100 1354.0
16.83300 1413.0
16.83500 1373.0
16.83700 1375.0
16.83900 1450.0
16.84100 1517.0
16.84300 1432.0
16.84500 1534.0
16.84700 1459.0
16.84900 1515.0
16.85100 1496.0
16.85300 1555.0
16.85500 1623.0
16.85700 1675.0
16.85900 1683.0
16.86100 1623.0
16.86300 1638.0
16.86500 1696.0
16.86700 1742.0
16.86900 1716.0
16.87100 1786.0
16.87300 1741.0
16.87500 1936.0
16.87700 1834.0
16.87900 1810.0
16.88100 1815.0
16.88300 1863.0
16.88500 2023.0
16.88700 2023.0
16.88900 2182.0
16.89100 2048.0
16.89300 2040.0
16.89500 2146.0
16.89700 2179.0
16.89900 2166.0
16.90100 2290.0
16.90300 2324.0
16.90500 2248.0
16.90700 2259.0
16.90900 2446.0
16.91100 2420.0
16.91300 2485.0
16.91500 2621.0
16.91700 2540.0
16.91900 2570.0
16.92100 2685.0
16.92300 2676.0
16.92500 2695.0
16.92700 2806.0
16.92900 2854.0
16.93100 2890.0
16.93300 2853.0
16.93500 3017.0
16.93700 3013.0
16.93900 3022.0
16.94100 3187.0
16.94300 3164.0
16.94500 3243.0
16.94700 3344.0
16.94900 3448.0
16.95100 3243.0
16.95300 3484.0
16.95500 3603.0
16.95700 3714.0
16.95900 3716.0
16.96100 3724.0
16.96300 3907.0
16.96500 3904.0
16.96700 3830.0
16.96900 3991.0
16.97100 3910.0
16.97300 4167.0
16.97500 4319.0
16.97700 4347.0
16.97900 4623.0
16.98100 4637.0
16.98300 4640.0
16.98500 4846.0
16.98700 4740.0
16.98900 5038.0
16.99100 5048.0
16.99300 5350.0
16.99500 5215.0
16.99700 5397.0
16.99900 5540.0
17.00100 5717.0
17.00300 5668.0
17.00500 5882.0
17.00700 6125.0
17.00900 6203.0
17.01100 6408.0
17.01300 6523.0
17.01500 6819.0
17.01700 6781.0
17.01900 7023.0
17.02100 7270.0
17.02300 7460.0
17.02500 7499.0
17.02700 7928.0
17.02900 7946.0
17.03100 8255.0
17.03300 8289.0
17.03500 8631.0
17.03700 8773.0
17.03900 8966.0
17.04100 9135.0
17.04300 9293.0
17.04500 9885.0
17.04700 10251.0
17.04900 10453.0
17.05100 10683.0
17.05300 10859.0
17.05500 11244.0
17.05700 11788.0
17.05900 12146.0
17.06100 12213.0
17.06300 12615.0
17.06500 12960.0
17.06700 13315.0
17.06900 13881.0
17.07100 14256.0
17.07300 14883.0
17.07500 15255.0
17.07700 15536.0
17.07900 16199.0
17.08100 16793.0
17.08300 17378.0
17.08500 18088.0
17.08700 18807.0
17.08900 19258.0
17.09100 19907.0
17.09300 20752.0
17.09500 21707.0
17.09700 22194.0
17.09900 23177.0
17.10100 23975.0
17.10300 25358.0
17.10500 26666.0
17.10700 27693.0
17.10900 28673.0
17.11100 29413.0
17.11300 31089.0
17.11500 32469.0
17.11700 33980.0
17.11900 35033.0
17.12100 36951.0
17.12300 38039.0
17.12500 40242.0
17.12700 42075.0
17.12900 44968.0
17.13100 46750.0
17.13300 49005.0
17.13500 51704.0
17.13700 54914.0
17.13900 57946.0
17.14100 61102.0
17.14300 64594.0
17.14500 68760.0
17.14700 72855.0
17.14900 77073.0
17.15100 81307.0
17.15300 85647.0
17.15500 91113.0
17.15700 97105.0
17.15900 103325.0
17.16100 110569.0
17.16300 116746.0
17.16500 125114.0
17.16700 133139.0
17.16900 142934.0
17.17100 150499.0
17.17300 160159.0
17.17500 173790.0
17.17700 185271.0
17.17900 198036.0
17.18100 210315.0
17.18300 225182.0
17.18500 240147.0
17.18700 257467.0
17.18900 276208.0
17.19100 294385.0
17.19300 312813.0
17.19500 332482.0
17.19700 357279.0
17.19900 377979.0
17.20100 403799.0
17.20300 428592.0
17.20500 452944.0
17.20700 479931.0
17.20900 506401.0
17.21100 533639.0
17.21300 565138.0
17.21500 595348.0
17.21700 627325.0
17.21900 653893.0
17.22100 682672.0
17.22300 713850.0
17.22500 742008.0
17.22700 768092.0
17.22900 800562.0
17.23100 822679.0
17.23300 844040.0
17.23500 871160.0
17.23700 898309.0
17.23900 907467.0
17.24100 912094.0
17.24300 934648.0
17.24500 948157.0
17.24700 959450.0
17.24900 971161.0
17.25100 969939.0
17.25300 974854.0
17.25500 971814.0
17.25700 961652.0
17.25900 945127.0
17.26100 933239.0
17.26300 919155.0
17.26500 898890.0
17.26700 878216.0
17.26900 864400.0
17.27100 844713.0
17.27300 820647.0
17.27500 791657.0
17.27700 765277.0
17.27900 739904.0
17.28100 710130.0
17.28300 677430.0
17.28500 646055.0
17.28700 614223.0
17.28900 585418.0
17.29100 556806.0
17.29300 529878.0
17.29500 500736.0
17.29700 471172.0
17.29900 447484.0
17.30100 425384.0
17.30300 401273.0
17.30500 368475.0
17.30700 344440.0
17.30900 327882.0
17.31100 307796.0
17.31300 287764.0
17.31500 270069.0
17.31700 253080.0
17.31900 234874.0
17.32100 219918.0
17.32300 207196.0
17.32500 193333.0
17.32700 182139.0
17.32900 169046.0
17.33100 158377.0
17.33300 148531.0
17.33500 139244.0
17.33700 130087.0
17.33900 121309.0
17.34100 114710.0
17.34300 107370.0
17.34500 99687.0
17.34700 93563.0
17.34900 88652.0
17.35100 84391.0
17.35300 78761.0
17.35500 74288.0
17.35700 69627.0
17.35900 65595.0
17.36100 62341.0
17.36300 58925.0
17.36500 56060.0
17.36700 52997.0
17.36900 50378.0
17.37100 47701.0
17.37300 45386.0
17.37500 43605.0
17.37700 40931.0
17.37900 38917.0
17.38100 37158.0
17.38300 35553.0
17.38500 33923.0
17.38700 32593.0
17.38900 30955.0
17.39100 29946.0
17.39300 28562.0
17.39500 27744.0
17.39700 26251.0
17.39900 25037.0
17.40100 24189.0
17.40300 23541.0
17.40500 22463.0
17.40700 21896.0
17.40900 20785.0
17.41100 20073.0
17.41300 19214.0
17.41500 18713.0
17.41700 18025.0
17.41900 17143.0
17.42100 16765.0
17.42300 16262.0
17.42500 15810.0
17.42700 15206.0
17.42900 14789.0
17.43100 14104.0
17.43300 13697.0
17.43500 13381.0
17.43700 12945.0
17.43900 12752.0
17.44100 12255.0
17.44300 11721.0
17.44500 11564.0
17.44700 11217.0
17.44900 10927.0
17.45100 10685.0
17.45300 10218.0
17.45500 9969.0
17.45700 9768.0
17.45900 9550.0
17.46100 9115.0
17.46300 8786.0
17.46500 8613.0
17.46700 8727.0
17.46900 8155.0
17.47100 7956.0
17.47300 7673.0
17.47500 7509.0
17.47700 7220.0
17.47900 7035.0
17.48100 6911.0
17.48300 6849.0
17.48500 6792.0
17.48700 6418.0
17.48900 6393.0
17.49100 6396.0
17.49300 6118.0
17.49500 5896.0
17.49700 5810.0
17.49900 5688.0
17.50100 5493.0
17.50300 5273.0
17.50500 5254.0
17.50700 5115.0
17.50900 4996.0
17.51100 4935.0
17.51300 4817.0
17.51500 4700.0
17.51700 4708.0
17.51900 4499.0
17.52100 4448.0
17.52300 4252.0
17.52500 4132.0
17.52700 4166.0
17.52900 4153.0
17.53100 3948.0
17.53300 3819.0
17.53500 3922.0
17.53700 3719.0
17.53900 3711.0
17.54100 3516.0
17.54300 3551.0
17.54500 3590.0
17.54700 3395.0
17.54900 3417.0
17.55100 3364.0
17.55300 3286.0
17.55500 3124.0
17.55700 3097.0
17.55900 2975.0
17.56100 3048.0
17.56300 3009.0
17.56500 2940.0
17.56700 2896.0
17.56900 2733.0
17.57100 2741.0
17.57300 2699.0
17.57500 2699.0
17.57700 2641.0
17.57900 2563.0
17.58100 2642.0
17.58300 2491.0
17.58500 2456.0
17.58700 2431.0
17.58900 2452.0
17.59100 2347.0
17.59300 2254.0
17.59500 2246.0
17.59700 2258.0
17.59900 2186.0
17.60100 2221.0
17.60300 2109.0
17.60500 2110.0
17.60700 2128.0
17.60900 2040.0
17.61100 2025.0
17.61300 1978.0
17.61500 1978.0
17.61700 1928.0
17.61900 1867.0
17.62100 1880.0
17.62300 1902.0
17.62500 1774.0
17.62700 1793.0
17.62900 1785.0
17.63100 1723.0
17.63300 1669.0
17.63500 1744.0
17.63700 1653.0
17.63900 1672.0
17.64100 1555.0
17.64300 1562.0
17.64500 1568.0
17.64700 1533.0
17.64900 1488.0
17.65100 1543.0
17.65300 1500.0
17.65500 1456.0
17.65700 1454.0
17.65900 1369.0
17.66100 1495.0
17.66300 1386.0
17.66500 1388.0
17.66700 1355.0
17.66900 1312.0
17.67100 1319.0
17.67300 1333.0
17.67500 1338.0
17.67700 1310.0
17.67900 1266.0
17.68100 1271.0
17.68300 1291.0
17.68500 1177.0
17.68700 1233.0
17.68900 1220.0
17.69100 1177.0
17.69300 1191.0
17.69500 1138.0
17.69700 1153.0
17.69900 1144.0
17.70100 1160.0
17.70300 1197.0
17.70500 1126.0
17.70700 1124.0
17.70900 1007.0
17.71100 1026.0
17.71300 1049.0
17.71500 1040.0
17.71700 1004.0
17.71900 978.0
17.72100 973.0
17.72300 994.0
17.72500 1014.0
17.72700 1004.0
17.72900 992.0
17.73100 869.0
17.73300 1002.0
17.73500 945.0
17.73700 956.0
17.73900 881.0
17.74100 909.0
17.74300 926.0
