33.02250 17.0
33.03050 13.0
33.03850 18.0
33.04650 23.0
33.05450 10.0
33.06250 13.0
33.07050 12.0
33.07850 14.0
33.08650 16.0
33.09450 13.0
33.10250 10.0
33.11050 19.0
33.11850 13.0
33.12650 15.0
33.13450 13.0
33.14250 17.0
33.15050 19.0
33.15850 11.0
33.16650 16.0
33.17450 16.0
33.18250 18.0
33.19050 13.0
33.19850 18.0
33.20650 23.0
33.21450 19.0
33.22250 16.0
33.23050 22.0
33.23850 13.0
33.24650 12.0
33.25450 14.0
33.26250 22.0
33.27050 14.0
33.27850 15.0
33.28650 13.0
33.29450 18.0
33.30250 12.0
33.31050 19.0
33.31850 17.0
33.32650 17.0
33.33450 24.0
33.34250 14.0
33.35050 14.0
33.35850 18.0
33.36650 24.0
33.37450 14.0
33.38250 12.0
33.39050 14.0
33.39850 16.0
33.40650 17.0
33.41450 11.0
33.42250 17.0
33.43050 8.0
33.43850 10.0
33.44650 15.0
33.45450 18.0
33.46250 28.0
33.47050 17.0
33.47850 18.0
33.48650 19.0
33.49450 19.0
33.50250 25.0
33.51050 13.0
33.51850 16.0
33.52650 16.0
33.53450 17.0
33.54250 15.0
33.55050 18.0
33.55850 19.0
33.56650 20.0
33.57450 16.0
33.58250 24.0
33.59050 15.0
33.59850 15.0
33.60650 21.0
33.61450 22.0
33.62250 23.0
33.63050 22.0
33.63850 23.0
33.64650 31.0
33.65450 31.0
33.66250 27.0
33.67050 28.0
33.67850 17.0
33.68650 24.0
33.69450 24.0
33.70250 22.0
33.71050 23.0
33.71850 27.0
33.72650 20.0
33.73450 26.0
33.74250 30.0
33.75050 27.0
33.75850 41.0
33.76650 28.0
33.77450 24.0
33.78250 24.0
33.79050 28.0
33.79850 23.0
33.80650 31.0
33.81450 31.0
33.82250 37.0
33.83050 29.0
33.83850 28.0
33.84650 39.0
33.85450 26.0
33.86250 27.0
33.87050 36.0
33.87850 38.0
33.88650 50.0
33.89450 40.0
33.90250 39.0
33.91050 44.0
33.91850 49.0
33.92650 30.0
33.93450 51.0
33.94250 51.0
33.95050 51.0
33.95850 48.0
33.96650 39.0
33.97450 55.0
33.98250 48.0
33.99050 53.0
33.99850 55.0
34.00650 54.0
34.01450 47.0
34.02250 63.0
34.03050 74.0
34.03850 64.0
34.04650 59.0
34.05450 57.0
34.06250 72.0
34.07050 67.0
34.07850 70.0
34.08650 64.0
34.09450 95.0
34.10250 89.0
34.11050 85.0
34.11850 72.0
34.12650 89.0
34.13450 89.0
34.14250 101.0
34.15050 105.0
34.15850 110.0
34.16650 109.0
34.17450 113.0
34.18250 90.0
34.19050 123.0
34.19850 139.0
34.20650 138.0
34.21450 160.0
34.22250 174.0
34.23050 170.0
34.23850 178.0
34.24650 236.0
34.25450 226.0
34.26250 250.0
34.27050 295.0
34.27850 277.0
34.28650 319.0
34.29450 383.0
34.30250 363.0
34.31050 450.0
34.31850 573.0
34.32650 762.0
34.33450 965.0
34.34250 1329.0
34.35050 1756.0
34.35850 2472.0
34.36650 3216.0
34.37450 4129.0
34.38250 5470.0
34.39050 6898.0
34.39850 8303.0
34.40650 10118.0
34.41450 11944.0
34.42250 13969.0
34.43050 15554.0
34.43850 17341.0
34.44650 18605.0
34.45450 19752.0
34.46250 20146.0
34.47050 20144.0
34.47850 19618.0
34.48650 18936.0
34.49450 17619.0
34.50250 15985.0
34.51050 14321.0
34.51850 12192.0
34.52650 10609.0
34.53450 8800.0
34.54250 7640.0
34.55050 6650.0
34.55850 6130.0
34.56650 5541.0
34.57450 5360.0
34.58250 5369.0
34.59050 5205.0
34.59850 5292.0
34.60650 5192.0
34.61450 4942.0
34.62250 4489.0
34.63050 4121.0
34.63850 3844.0
34.64650 3407.0
34.65450 3230.0
34.66250 2951.0
34.67050 2992.0
34.67850 2987.0
34.68650 3062.0
34.69450 3120.0
34.70250 3083.0
34.71050 3124.0
34.71850 2920.0
34.72650 2773.0
34.73450 2599.0
34.74250 2428.0
34.75050 2449.0
34.75850 2220.0
34.76650 2323.0
34.77450 2309.0
34.78250 2322.0
34.79050 2311.0
34.79850 2355.0
34.80650 2128.0
34.81450 2103.0
34.82250 1969.0
34.83050 1864.0
34.83850 1846.0
34.84650 1824.0
34.85450 1816.0
34.86250 1845.0
34.87050 1835.0
34.87850 1875.0
34.88650 1891.0
34.89450 1748.0
34.90250 1640.0
34.91050 1512.0
34.91850 1458.0
34.92650 1468.0
34.93450 1410.0
34.94250 1515.0
34.95050 1463.0
34.95850 1444.0
34.96650 1527.0
34.97450 1421.0
34.98250 1350.0
34.99050 1340.0
34.99850 1318.0
35.00650 1185.0
35.01450 1163.0
35.02250 1170.0
35.03050 1266.0
35.03850 1234.0
35.04650 1228.0
35.05450 1186.0
35.06250 1154.0
35.07050 1141.0
35.07850 1172.0
35.08650 1167.0
35.09450 1138.0
35.10250 1154.0
35.11050 1212.0
35.11850 1182.0
35.12650 1228.0
35.13450 1272.0
35.14250 1274.0
35.15050 1277.0
35.15850 1250.0
35.16650 1337.0
35.17450 1417.0
35.18250 1458.0
35.19050 1644.0
35.19850 1656.0
35.20650 1902.0
35.21450 2084.0
35.22250 2394.0
35.23050 2719.0
35.23850 3255.0
35.24650 4526.0
35.25450 5962.0
35.26250 8004.0
35.27050 12105.0
35.27850 18736.0
35.28650 28544.0
35.29450 46218.0
35.30250 78514.0
35.31050 123573.0
35.31850 167695.0
35.32650 191760.0
35.33450 189097.0
35.34250 166176.0
35.35050 144122.0
35.35850 136309.0
35.36650 142278.0
35.37450 152556.0
35.38250 155046.0
35.39050 145314.0
35.39850 121304.0
35.40650 96677.0
35.41450 73857.0
35.42250 55666.0
35.43050 40756.0
35.43850 29227.0
35.44650 21593.0
35.45450 15651.0
35.46250 11650.0
35.47050 8801.0
35.47850 7131.0
35.48650 5692.0
35.49450 4534.0
35.50250 3855.0
35.51050 3317.0
35.51850 2806.0
35.52650 2452.0
35.53450 2157.0
35.54250 2022.0
35.55050 1870.0
35.55850 1737.0
35.56650 1586.0
35.57450 1520.0
35.58250 1429.0
35.59050 1311.0
35.59850 1241.0
35.60650 1148.0
35.61450 1113.0
35.62250 1080.0
35.63050 981.0
35.63850 992.0
35.64650 968.0
35.65450 907.0
35.66250 929.0
35.67050 926.0
35.67850 882.0
35.68650 848.0
35.69450 876.0
35.70250 891.0
35.71050 841.0
35.71850 839.0
35.72650 885.0
35.73450 937.0
35.74250 901.0
35.75050 931.0
35.75850 937.0
35.76650 966.0
35.77450 1005.0
35.78250 1070.0
35.79050 1058.0
35.79850 1120.0
35.80650 1185.0
35.81450 1207.0
35.82250 1303.0
35.83050 1330.0
35.83850 1466.0
35.84650 1506.0
35.85450 1703.0
35.86250 1878.0
35.87050 1972.0
35.87850 2157.0
35.88650 2326.0
35.89450 2554.0
35.90250 2938.0
35.91050 3111.0
35.91850 3487.0
35.92650 3948.0
35.93450 4322.0
35.94250 4969.0
35.95050 5600.0
35.95850 6292.0
35.96650 7304.0
35.97450 8449.0
35.98250 10061.0
35.99050 12002.0
35.99850 14873.0
36.00650 18553.0
36.01450 24104.0
36.02250 34430.0
36.03050 58369.0
36.03850 116603.0
36.04650 256661.0
36.05450 438837.0
36.06250 460698.0
36.07050 292068.0
36.07850 129400.0
36.08650 53245.0
36.09450 23354.0
36.10250 11288.0
36.11050 6170.0
36.11850 3781.0
36.12650 2549.0
36.13450 1769.0
36.14250 1361.0
36.15050 989.0
36.15850 811.0
36.16650 662.0
36.17450 518.0
36.18250 453.0
36.19050 388.0
36.19850 323.0
36.20650 298.0
36.21450 273.0
36.22250 231.0
36.23050 203.0
36.23850 211.0
36.24650 166.0
36.25450 184.0
36.26250 138.0
36.27050 159.0
36.27850 131.0
36.28650 122.0
36.29450 144.0
36.30250 99.0
36.31050 97.0
36.31850 91.0
36.32650 84.0
36.33450 93.0
36.34250 76.0
36.35050 59.0
36.35850 65.0
36.36650 71.0
36.37450 51.0
36.38250 43.0
36.39050 53.0
36.39850 43.0
36.40650 55.0
36.41450 47.0
36.42250 37.0
36.43050 37.0
36.43850 39.0
36.44650 28.0
36.45450 40.0
36.46250 40.0
36.47050 27.0
36.47850 22.0
36.48650 22.0
36.49450 24.0
36.50250 23.0
36.51050 14.0
36.51850 31.0
36.52650 14.0
36.53450 17.0
36.54250 19.0
36.55050 18.0
36.55850 15.0
36.56650 19.0
36.57450 15.0
36.58250 20.0
36.59050 17.0
36.59850 16.0
36.60650 27.0
36.61450 14.0
36.62250 19.0
36.63050 15.0
36.63850 16.0
36.64650 20.0
36.65450 17.0
36.66250 17.0
36.67050 16.0
36.67850 23.0
36.68650 14.0
36.69450 12.0
36.70250 8.0
36.71050 16.0
36.71850 14.0
36.72650 16.0
36.73450 28.0
36.74250 22.0
36.75050 12.0
36.75850 24.0
36.76650 15.0
36.77450 13.0
36.78250 16.0
36.79050 12.0
36.79850 13.0
36.80650 20.0
36.81450 15.0
36.82250 12.0
36.83050 10.0
36.83850 13.0
36.84650 13.0
36.85450 11.0
36.86250 18.0
36.87050 16.0
36.87850 10.0
36.88650 12.0
36.89450 7.0
36.90250 17.0
36.91050 14.0
36.91850 17.0
36.92650 11.0
36.93450 18.0
36.94250 12.0
36.95050 14.0
36.95850 16.0
36.96650 15.0
36.97450 8.0
36.98250 13.0
36.99050 7.0
36.99850 11.0
37.00650 13.0
