34.045150 24.0
34.047650 23.0
34.050150 21.0
34.052650 14.0
34.055150 19.0
34.057650 14.0
34.060150 17.0
34.062650 28.0
34.065150 25.0
34.067650 16.0
34.070150 16.0
34.072650 21.0
34.075150 30.0
34.077650 22.0
34.080150 19.0
34.082650 19.0
34.085150 26.0
34.087650 19.0
34.090150 23.0
34.092650 19.0
34.095150 20.0
34.097650 29.0
34.100150 24.0
34.102650 21.0
34.105150 22.0
34.107650 23.0
34.110150 23.0
34.112650 24.0
34.115150 33.0
34.117650 24.0
34.120150 27.0
34.122650 20.0
34.125150 27.0
34.127650 28.0
34.130150 23.0
34.132650 36.0
34.135150 30.0
34.137650 34.0
34.140150 27.0
34.142650 35.0
34.145150 23.0
34.147650 46.0
34.150150 28.0
34.152650 32.0
34.155150 41.0
34.157650 28.0
34.160150 29.0
34.162650 36.0
34.165150 26.0
34.167650 34.0
34.170150 34.0
34.172650 49.0
34.175150 37.0
34.177650 35.0
34.180150 47.0
34.182650 34.0
34.185150 48.0
34.187650 36.0
34.190150 48.0
34.192650 32.0
34.195150 41.0
34.197650 46.0
34.200150 45.0
34.202650 38.0
34.205150 45.0
34.207650 55.0
34.210150 47.0
34.212650 63.0
34.215150 47.0
34.217650 55.0
34.220150 55.0
34.222650 52.0
34.225150 52.0
34.227650 67.0
34.230150 48.0
34.232650 68.0
34.235150 53.0
34.237650 44.0
34.240150 64.0
34.242650 68.0
34.245150 82.0
34.247650 66.0
34.250150 77.0
34.252650 67.0
34.255150 67.0
34.257650 88.0
34.260150 91.0
34.262650 90.0
34.265150 86.0
34.267650 92.0
34.270150 94.0
34.272650 103.0
34.275150 116.0
34.277650 108.0
34.280150 106.0
34.282650 111.0
34.285150 100.0
34.287650 130.0
34.290150 103.0
34.292650 114.0
34.295150 116.0
34.297650 132.0
34.300150 118.0
34.302650 135.0
34.305150 132.0
34.307650 133.0
34.310150 158.0
34.312650 170.0
34.315150 129.0
34.317650 155.0
34.320150 160.0
34.322650 189.0
34.325150 171.0
34.327650 172.0
34.330150 203.0
34.332650 196.0
34.335150 230.0
34.337650 246.0
34.340150 258.0
34.342650 257.0
34.345150 245.0
34.347650 292.0
34.350150 293.0
34.352650 319.0
34.355150 316.0
34.357650 335.0
34.360150 358.0
34.362650 344.0
34.365150 401.0
34.367650 415.0
34.370150 461.0
34.372650 482.0
34.375150 525.0
34.377650 527.0
34.380150 648.0
34.382650 605.0
34.385150 667.0
34.387650 729.0
34.390150 803.0
34.392650 821.0
34.395150 885.0
34.397650 979.0
34.400150 997.0
34.402650 1134.0
34.405150 1263.0
34.407650 1256.0
34.410150 1444.0
34.412650 1650.0
34.415150 1806.0
34.417650 2024.0
34.420150 2157.0
34.422650 2489.0
34.425150 2728.0
34.427650 3158.0
34.430150 3634.0
34.432650 4221.0
34.435150 4749.0
34.437650 5560.0
34.440150 6266.0
34.442650 7123.0
34.445150 8127.0
34.447650 9034.0
34.450150 9759.0
34.452650 10553.0
34.455150 10948.0
34.457650 11420.0
34.460150 11651.0
34.462650 12497.0
34.465150 13277.0
34.467650 14461.0
34.470150 16152.0
34.472650 18293.0
34.475150 21432.0
34.477650 25199.0
34.480150 29273.0
34.482650 34545.0
34.485150 40159.0
34.487650 46323.0
34.490150 52994.0
34.492650 60173.0
34.495150 67411.0
34.497650 75441.0
34.500150 83414.0
34.502650 91279.0
34.505150 99934.0
34.507650 109454.0
34.510150 119892.0
34.512650 131596.0
34.515150 147041.0
34.517650 170459.0
34.520150 205361.0
34.522650 264610.0
34.525150 370475.0
34.527650 556536.0
34.530150 889647.0
34.532650 1430759.0
34.535150 2109703.0
34.537650 2627888.0
34.540150 2787338.0
34.542650 2603251.0
34.545150 2042342.0
34.547650 1335345.0
34.550150 803201.0
34.552650 486046.0
34.555150 321629.0
34.557650 251585.0
34.560150 228152.0
34.562650 206931.0
34.565150 162941.0
34.567650 114366.0
34.570150 76626.0
34.572650 52618.0
34.575150 37093.0
34.577650 27811.0
34.580150 21028.0
34.582650 16722.0
34.585150 13648.0
34.587650 11257.0
34.590150 9299.0
34.592650 7765.0
34.595150 6591.0
34.597650 5560.0
34.600150 4870.0
34.602650 4139.0
34.605150 3698.0
34.607650 3333.0
34.610150 2826.0
34.612650 2542.0
34.615150 2251.0
34.617650 1998.0
34.620150 1895.0
34.622650 1742.0
34.625150 1595.0
34.627650 1309.0
34.630150 1295.0
34.632650 1207.0
34.635150 1107.0
34.637650 1000.0
34.640150 963.0
34.642650 883.0
34.645150 846.0
34.647650 750.0
34.650150 743.0
34.652650 638.0
34.655150 612.0
34.657650 556.0
34.660150 550.0
34.662650 525.0
34.665150 479.0
34.667650 423.0
34.670150 426.0
34.672650 455.0
34.675150 373.0
34.677650 380.0
34.680150 342.0
34.682650 328.0
34.685150 307.0
34.687650 293.0
34.690150 271.0
34.692650 281.0
34.695150 303.0
34.697650 269.0
34.700150 267.0
34.702650 264.0
34.705150 251.0
34.707650 229.0
34.710150 210.0
34.712650 195.0
34.715150 189.0
34.717650 188.0
34.720150 202.0
34.722650 145.0
34.725150 189.0
34.727650 171.0
34.730150 176.0
34.732650 127.0
34.735150 154.0
34.737650 142.0
34.740150 138.0
34.742650 141.0
34.745150 144.0
34.747650 125.0
34.750150 115.0
34.752650 118.0
34.755150 124.0
34.757650 131.0
34.760150 126.0
34.762650 110.0
34.765150 100.0
34.767650 87.0
34.770150 100.0
34.772650 110.0
34.775150 99.0
34.777650 110.0
34.780150 85.0
34.782650 76.0
34.785150 96.0
34.787650 96.0
34.790150 67.0
34.792650 67.0
34.795150 66.0
34.797650 72.0
34.800150 74.0
34.802650 67.0
34.805150 65.0
34.807650 55.0
34.810150 54.0
34.812650 71.0
34.815150 65.0
34.817650 59.0
34.820150 54.0
34.822650 47.0
34.825150 59.0
34.827650 50.0
34.830150 54.0
34.832650 54.0
34.835150 34.0
34.837650 56.0
34.840150 41.0
34.842650 40.0
34.845150 61.0
34.847650 44.0
34.850150 45.0
34.852650 45.0
34.855150 48.0
34.857650 39.0
34.860150 28.0
34.862650 35.0
34.865150 39.0
34.867650 42.0
34.870150 39.0
34.872650 39.0
34.875150 40.0
34.877650 36.0
34.880150 34.0
34.882650 25.0
34.885150 36.0
34.887650 38.0
34.890150 29.0
34.892650 37.0
34.895150 32.0
34.897650 31.0
34.900150 34.0
34.902650 36.0
34.905150 21.0
34.907650 31.0
34.910150 28.0
34.912650 30.0
34.915150 34.0
34.917650 37.0
34.920150 28.0
34.922650 30.0
34.925150 28.0
34.927650 27.0
34.930150 31.0
34.932650 25.0
34.935150 23.0
34.937650 28.0
34.940150 26.0
34.942650 24.0
34.945150 29.0
34.947650 28.0
34.950150 27.0
34.952650 27.0
34.955150 34.0
34.957650 26.0
34.960150 26.0
34.962650 15.0
34.965150 26.0
34.967650 22.0
34.970150 12.0
34.972650 21.0
34.975150 20.0
34.977650 20.0
34.980150 20.0
34.982650 23.0
34.985150 23.0
34.987650 19.0
34.990150 21.0
34.992650 25.0
34.995150 16.0
34.997650 21.0
35.000150 18.0
35.002650 26.0
35.005150 22.0
35.007650 13.0
35.010150 15.0
35.012650 17.0
35.015150 24.0
35.017650 12.0
35.020150 17.0
35.022650 17.0
35.025150 27.0
35.027650 18.0
35.030150 16.0
35.032650 19.0
35.035150 16.0
