34.0374 13
34.0404 23
34.0434 17
34.0464 20
34.0494 23
34.0524 28
34.0554 15
34.0584 12
34.0614 16
34.0644 30
34.0674 19
34.0704 26
34.0734 27
34.0764 25
34.0794 14
34.0824 12
34.0854 28
34.0884 31
34.0914 25
34.0944 31
34.0974 29
34.1004 28
34.1034 24
34.1064 28
34.1094 28
34.1124 37
34.1154 37
34.1184 33
34.1214 41
34.1244 25
34.1274 30
34.1304 33
34.1334 38
34.1364 35
34.1394 29
34.1424 34
34.1454 42
34.1484 32
34.1514 39
34.1544 44
34.1574 35
34.1604 36
34.1634 32
34.1664 35
34.1694 37
34.1724 44
34.1754 53
34.1784 50
34.1814 43
34.1844 50
34.1874 50
34.1904 49
34.1934 47
34.1964 58
34.1994 54
34.2024 60
34.2054 62
34.2084 53
34.2114 56
34.2144 68
34.2174 48
34.2204 63
34.2234 67
34.2264 72
34.2294 72
34.2324 71
34.2354 67
34.2384 79
34.2414 80
34.2444 82
34.2474 93
34.2504 105
34.2534 96
34.2564 101
34.2594 114
34.2624 104
34.2654 88
34.2684 129
34.2714 130
34.2744 121
34.2774 117
34.2804 130
34.2834 138
34.2864 140
34.2894 147
34.2924 145
34.2954 146
34.2984 158
34.3014 183
34.3044 163
34.3074 167
34.3104 190
34.3134 194
34.3164 213
34.3194 224
34.3224 220
34.3254 217
34.3284 260
34.3314 243
34.3344 272
34.3374 276
34.3404 339
34.3434 320
34.3464 325
34.3494 353
34.3524 384
34.3554 343
34.3584 406
34.3614 418
34.3644 452
34.3674 506
34.3704 502
34.3734 576
34.3764 642
34.3794 651
34.3824 695
34.3854 699
34.3884 777
34.3914 797
34.3944 918
34.3974 1046
34.4004 1129
34.4034 1232
34.4064 1370
34.4094 1420
34.4124 1525
34.4154 1659
34.4184 1714
34.4214 1954
34.4244 2226
34.4274 2690
34.4304 3187
34.4334 3881
34.4364 4380
34.4394 4800
34.4424 5013
34.4454 5623
34.4484 6009
34.4514 7572
34.4544 10046
34.4574 14709
34.4604 21079
34.4634 30721
34.4664 42321
34.4694 55562
34.4724 70267
34.4754 83358
34.4784 95377
34.4814 104140
34.4844 110305
34.4874 110760
34.4904 107428
34.4934 100289
34.4964 92166
34.4994 82723
34.5024 74858
34.5054 69785
34.5084 70341
34.5114 78119
34.5144 94363
34.5174 125673
34.5204 178838
34.5234 274113
34.5264 459174
34.5294 795133
34.5324 1415020
34.5354 2127992
34.5384 2506274
34.5414 2274086
34.5444 1524751
34.5474 852475
34.5504 438753
34.5534 252521
34.5564 164171
34.5594 118626
34.5624 87094
34.5654 57766
34.5684 38214
34.5714 26953
34.5744 20251
34.5774 15544
34.5804 12457
34.5834 10117
34.5864 8508
34.5894 7189
34.5924 6116
34.5954 5359
34.5984 4540
34.6014 3908
34.6044 3412
34.6074 2807
34.6104 2401
34.6134 2076
34.6164 1733
34.6194 1504
34.6224 1324
34.6254 1188
34.6284 1021
34.6314 942
34.6344 910
34.6374 773
34.6404 723
34.6434 657
34.6464 622
34.6494 603
34.6524 536
34.6554 500
34.6584 446
34.6614 442
34.6644 408
34.6674 417
34.6704 380
34.6734 340
34.6764 328
34.6794 316
34.6824 276
34.6854 264
34.6884 263
34.6914 232
34.6944 239
34.6974 214
34.7004 233
34.7034 216
34.7064 222
34.7094 203
34.7124 200
34.7154 177
34.7184 178
34.7214 160
34.7244 161
34.7274 161
34.7304 139
34.7334 132
34.7364 148
34.7394 141
34.7424 138
34.7454 122
34.7484 133
34.7514 110
34.7544 121
34.7574 111
34.7604 97
34.7634 82
34.7664 95
34.7694 87
34.7724 77
34.7754 83
34.7784 66
34.7814 90
34.7844 82
34.7874 88
34.7904 91
34.7934 69
34.7964 65
34.7994 61
34.8024 51
34.8054 49
34.8084 69
34.8114 65
34.8144 72
34.8174 52
34.8204 52
34.8234 45
34.8264 42
34.8294 53
34.8324 46
34.8354 59
34.8384 47
34.8414 50
34.8444 53
34.8474 59
34.8504 44
34.8534 41
34.8564 25
34.8594 33
34.8624 40
34.8654 34
34.8684 33
34.8714 43
34.8744 31
34.8774 38
34.8804 37
34.8834 23
34.8864 34
34.8894 41
34.8924 43
34.8954 28
34.8984 33
34.9014 28
34.9044 27
34.9074 32
34.9104 26
34.9134 27
34.9164 31
34.9194 26
34.9224 22
34.9254 19
34.9284 22
34.9314 18
34.9344 21
34.9374 15
34.9404 21
34.9434 26
34.9464 28
34.9494 23
34.9524 18
34.9554 17
34.9584 22
34.9614 15
34.9644 28
34.9674 16
34.9704 18
34.9734 15
34.9764 22
34.9794 14
34.9824 16
34.9854 18
34.9884 13
34.9914 11
34.9944 17
34.9974 21
35.0004 15
35.0034 17
35.0064 12
35.0094 23
35.0124 21
35.0154 15
35.0184 18
35.0214 15
35.0244 18
35.0274 16
35.0304 16
35.0334  9
35.0364 14
35.0394 10
