34.092150 11.0
34.094650 17.0
34.097150 11.0
34.099650 16.0
34.102150 11.0
34.104650 24.0
34.107150 28.0
34.109650 23.0
34.112150 23.0
34.114650 18.0
34.117150 14.0
34.119650 30.0
34.122150 22.0
34.124650 21.0
34.127150 23.0
34.129650 13.0
34.132150 19.0
34.134650 21.0
34.137150 34.0
34.139650 28.0
34.142150 30.0
34.144650 20.0
34.147150 22.0
34.149650 21.0
34.152150 23.0
34.154650 35.0
34.157150 31.0
34.159650 25.0
34.162150 20.0
34.164650 34.0
34.167150 35.0
34.169650 34.0
34.172150 30.0
34.174650 24.0
34.177150 39.0
34.179650 21.0
34.182150 37.0
34.184650 31.0
34.187150 33.0
34.189650 24.0
34.192150 37.0
34.194650 42.0
34.197150 35.0
34.199650 33.0
34.202150 44.0
34.204650 40.0
34.207150 37.0
34.209650 44.0
34.212150 33.0
34.214650 40.0
34.217150 40.0
34.219650 57.0
34.222150 39.0
34.224650 48.0
34.227150 56.0
34.229650 62.0
34.232150 48.0
34.234650 53.0
34.237150 51.0
34.239650 62.0
34.242150 77.0
34.244650 60.0
34.247150 47.0
34.249650 57.0
34.252150 61.0
34.254650 55.0
34.257150 51.0
34.259650 69.0
34.262150 82.0
34.264650 58.0
34.267150 64.0
34.269650 79.0
34.272150 73.0
34.274650 65.0
34.277150 81.0
34.279650 83.0
34.282150 93.0
34.284650 78.0
34.287150 89.0
34.289650 83.0
34.292150 103.0
34.294650 111.0
34.297150 103.0
34.299650 112.0
34.302150 111.0
34.304650 121.0
34.307150 120.0
34.309650 117.0
34.312150 125.0
34.314650 129.0
34.317150 127.0
34.319650 153.0
34.322150 137.0
34.324650 143.0
34.327150 148.0
34.329650 168.0
34.332150 166.0
34.334650 175.0
34.337150 171.0
34.339650 199.0
34.342150 201.0
34.344650 197.0
34.347150 197.0
34.349650 204.0
34.352150 251.0
34.354650 230.0
34.357150 248.0
34.359650 247.0
34.362150 277.0
34.364650 311.0
34.367150 307.0
34.369650 290.0
34.372150 384.0
34.374650 371.0
34.377150 391.0
34.379650 389.0
34.382150 416.0
34.384650 415.0
34.387150 488.0
34.389650 478.0
34.392150 546.0
34.394650 501.0
34.397150 591.0
34.399650 605.0
34.402150 633.0
34.404650 706.0
34.407150 760.0
34.409650 794.0
34.412150 893.0
34.414650 947.0
34.417150 1054.0
34.419650 1165.0
34.422150 1308.0
34.424650 1387.0
34.427150 1482.0
34.429650 1630.0
34.432150 1751.0
34.434650 1847.0
34.437150 2058.0
34.439650 2248.0
34.442150 2500.0
34.444650 2655.0
34.447150 3019.0
34.449650 3381.0
34.452150 3777.0
34.454650 4304.0
34.457150 4957.0
34.459650 5360.0
34.462150 6355.0
34.464650 7445.0
34.467150 8978.0
34.469650 10917.0
34.472150 13140.0
34.474650 15549.0
34.477150 18721.0
34.479650 22830.0
34.482150 26867.0
34.484650 31896.0
34.487150 37230.0
34.489650 42949.0
34.492150 49074.0
34.494650 56098.0
34.497150 63625.0
34.499650 71511.0
34.502150 80342.0
34.504650 89944.0
34.507150 100457.0
34.509650 110622.0
34.512150 124607.0
34.514650 141097.0
34.517150 162512.0
34.519650 194781.0
34.522150 247054.0
34.524650 334028.0
34.527150 485339.0
34.529650 748197.0
34.532150 1190863.0
34.534650 1821194.0
34.537150 2409962.0
34.539650 2692196.0
34.542150 2634815.0
34.544650 2220361.0
34.547150 1546776.0
34.549650 944861.0
34.552150 565227.0
34.554650 354118.0
34.557150 247296.0
34.559650 202058.0
34.562150 194747.0
34.564650 197047.0
34.567150 177594.0
34.569650 132169.0
34.572150 86365.0
34.574650 53950.0
34.577150 35451.0
34.579650 24902.0
34.582150 18602.0
34.584650 14598.0
34.587150 11697.0
34.589650 9959.0
34.592150 8342.0
34.594650 7126.0
34.597150 6064.0
34.599650 5270.0
34.602150 4344.0
34.604650 3885.0
34.607150 3357.0
34.609650 3038.0
34.612150 2696.0
34.614650 2363.0
34.617150 2120.0
34.619650 1898.0
34.622150 1710.0
34.624650 1564.0
34.627150 1383.0
34.629650 1267.0
34.632150 1151.0
34.634650 1044.0
34.637150 1026.0
34.639650 894.0
34.642150 847.0
34.644650 806.0
34.647150 757.0
34.649650 690.0
34.652150 641.0
34.654650 613.0
34.657150 593.0
34.659650 526.0
34.662150 496.0
34.664650 480.0
34.667150 488.0
34.669650 410.0
34.672150 383.0
34.674650 357.0
34.677150 340.0
34.679650 327.0
34.682150 340.0
34.684650 292.0
34.687150 290.0
34.689650 270.0
34.692150 258.0
34.694650 268.0
34.697150 261.0
34.699650 241.0
34.702150 229.0
34.704650 225.0
34.707150 232.0
34.709650 191.0
34.712150 191.0
34.714650 177.0
34.717150 178.0
34.719650 169.0
34.722150 160.0
34.724650 156.0
34.727150 158.0
34.729650 161.0
34.732150 142.0
34.734650 147.0
34.737150 127.0
34.739650 153.0
34.742150 124.0
34.744650 123.0
34.747150 132.0
34.749650 111.0
34.752150 122.0
34.754650 115.0
34.757150 101.0
34.759650 86.0
34.762150 111.0
34.764650 88.0
34.767150 113.0
34.769650 93.0
34.772150 101.0
34.774650 89.0
34.777150 93.0
34.779650 93.0
34.782150 79.0
34.784650 88.0
34.787150 86.0
34.789650 57.0
34.792150 75.0
34.794650 77.0
34.797150 68.0
34.799650 64.0
34.802150 64.0
34.804650 64.0
34.807150 76.0
34.809650 64.0
34.812150 61.0
34.814650 51.0
34.817150 62.0
34.819650 60.0
34.822150 46.0
34.824650 49.0
34.827150 46.0
34.829650 62.0
34.832150 52.0
34.834650 37.0
34.837150 36.0
34.839650 38.0
34.842150 49.0
34.844650 41.0
34.847150 48.0
34.849650 52.0
34.852150 40.0
34.854650 47.0
34.857150 43.0
34.859650 40.0
34.862150 33.0
34.864650 39.0
34.867150 34.0
34.869650 35.0
34.872150 33.0
34.874650 28.0
34.877150 38.0
34.879650 36.0
34.882150 43.0
34.884650 38.0
34.887150 40.0
34.889650 37.0
34.892150 34.0
34.894650 32.0
34.897150 32.0
34.899650 28.0
34.902150 27.0
34.904650 26.0
34.907150 31.0
34.909650 29.0
34.912150 32.0
34.914650 31.0
34.917150 20.0
34.919650 22.0
34.922150 24.0
34.924650 22.0
34.927150 28.0
34.929650 19.0
34.932150 28.0
34.934650 21.0
34.937150 26.0
34.939650 24.0
34.942150 15.0
34.944650 22.0
34.947150 20.0
34.949650 14.0
34.952150 25.0
34.954650 23.0
34.957150 21.0
34.959650 23.0
34.962150 13.0
34.964650 25.0
34.967150 19.0
34.969650 11.0
34.972150 22.0
34.974650 14.0
34.977150 14.0
34.979650 16.0
34.982150 13.0
34.984650 14.0
34.987150 11.0
