32.2349 13
32.2359 11
32.2369  5
32.2379 10
32.2389  6
32.2399 21
32.2409 11
32.2419 13
32.2429  8
32.2439  7
32.2449 18
32.2459 16
32.2469  4
32.2479 12
32.2489 12
32.2499 13
32.2509 10
32.2519  6
32.2529  8
32.2539 18
32.2549 13
32.2559 19
32.2569  8
32.2579 14
32.2589 15
32.2599 12
32.2609  4
32.2619 12
32.2629  9
32.2639  9
32.2649 11
32.2659 12
32.2669 18
32.2679  6
32.2689  4
32.2699 14
32.2709 11
32.2719  6
32.2729 10
32.2739 15
32.2749 15
32.2759 14
32.2769 13
32.2779 19
32.2789 14
32.2799  9
32.2809 20
32.2819 13
32.2829 11
32.2839 14
32.2849 12
32.2859 14
32.2869 10
32.2879 12
32.2889 16
32.2899 13
32.2909 15
32.2919 12
32.2929  7
32.2939 18
32.2949 14
32.2959 13
32.2969  8
32.2979  9
32.2989 14
32.2999 15
32.3009 12
32.3019 12
32.3029 13
32.3039 17
32.3049 17
32.3059 18
32.3069 15
32.3079 15
32.3089 13
32.3099 19
32.3109  9
32.3119 14
32.3129  8
32.3139 18
32.3149 14
32.3159 15
32.3169 21
32.3179  9
32.3189 18
32.3199 11
32.3209 15
32.3219 11
32.3229 21
32.3239 21
32.3249 20
32.3259 15
32.3269 17
32.3279 13
32.3289 17
32.3299 24
32.3309  9
32.3319 16
32.3329 27
32.3339 21
32.3349 21
32.3359 17
32.3369 19
32.3379 16
32.3389 23
32.3399 22
32.3409 14
32.3419 19
32.3429 23
32.3439 26
32.3449 19
32.3459 20
32.3469 16
32.3479 27
32.3489 20
32.3499 25
32.3509 27
32.3519 35
32.3529 34
32.3539 35
32.3549 34
32.3559 33
32.3569 37
32.3579 34
32.3589 48
32.3599 28
32.3609 40
32.3619 36
32.3629 38
32.3639 40
32.3649 41
32.3659 50
32.3669 34
32.3679 46
32.3689 69
32.3699 39
32.3709 64
32.3719 51
32.3729 56
32.3739 67
32.3749 72
32.3759 71
32.3769 79
32.3779 80
32.3789 83
32.3799 111
32.3809 112
32.3819 97
32.3829 101
32.3839 125
32.3849 139
32.3859 133
32.3869 137
32.3879 153
32.3889 173
32.3899 197
32.3909 235
32.3919 238
32.3929 255
32.3939 258
32.3949 273
32.3959 322
32.3969 356
32.3979 407
32.3989 497
32.3999 506
32.4009 583
32.4019 671
32.4029 730
32.4039 804
32.4049 963
32.4059 1057
32.4069 1240
32.4079 1420
32.4089 1702
32.4099 1811
32.4109 2125
32.4119 2504
32.4129 2820
32.4139 3259
32.4149 3830
32.4159 4389
32.4169 4984
32.4179 5778
32.4189 6781
32.4199 7704
32.4209 8752
32.4219 9796
32.4229 11271
32.4239 12848
32.4249 14314
32.4259 15829
32.4269 17382
32.4279 18450
32.4289 20297
32.4299 21216
32.4309 22475
32.4319 22935
32.4329 23719
32.4339 23901
32.4349 24300
32.4359 24155
32.4369 23695
32.4379 22984
32.4389 21844
32.4399 21183
32.4409 19906
32.4419 18801
32.4429 17332
32.4439 15747
32.4449 14300
32.4459 12790
32.4469 11281
32.4479 9803
32.4489 8337
32.4499 6913
32.4509 6004
32.4519 5189
32.4529 4294
32.4539 3631
32.4549 2954
32.4559 2607
32.4569 2141
32.4579 1725
32.4589 1377
32.4599 1225
32.4609 1048
32.4619 841
32.4629 752
32.4639 615
32.4649 547
32.4659 459
32.4669 427
32.4679 328
32.4689 338
32.4699 290
32.4709 242
32.4719 202
32.4729 187
32.4739 169
32.4749 155
32.4759 139
32.4769 126
32.4779 120
32.4789 105
32.4799 85
32.4809 76
32.4819 83
32.4829 77
32.4839 73
32.4849 67
32.4859 79
32.4869 57
32.4879 45
32.4889 46
32.4899 42
32.4909 50
32.4919 47
32.4929 42
32.4939 35
32.4949 48
32.4959 33
32.4969 41
32.4979 19
32.4989 36
32.4999 28
32.5009 24
32.5019 30
32.5029 40
32.5039 27
32.5049 24
32.5059 25
32.5069 24
32.5079 26
32.5089 27
32.5099 17
32.5109 20
32.5119 15
32.5129 22
32.5139 23
32.5149 18
32.5159 25
32.5169 18
32.5179 20
32.5189 17
32.5199 16
32.5209 18
32.5219 18
32.5229 18
32.5239 21
32.5249 20
32.5259 14
32.5269 10
32.5279 15
32.5289 20
32.5299 12
32.5309 15
32.5319 16
32.5329 14
32.5339 19
32.5349 28
32.5359 13
32.5369 19
32.5379 21
32.5389 17
32.5399 19
32.5409 10
32.5419  7
32.5429 18
32.5439  7
32.5449  7
32.5459 18
32.5469 15
32.5479 14
32.5489 19
32.5499 14
32.5509 11
32.5519 15
32.5529 18
32.5539 20
32.5549 13
32.5559 10
32.5569 17
32.5579  8
32.5589 12
32.5599  9
32.5609 14
32.5619  9
32.5629 11
32.5639 16
32.5649  7
32.5659 10
32.5669 14
32.5679 16
32.5689 10
32.5699 16
32.5709 14
32.5719 14
32.5729 10
32.5739  9
32.5749  6
32.5759 11
32.5769 15
32.5779  4
32.5789 12
32.5799 12
32.5809 18
32.5819 10
32.5829 10
32.5839  9
32.5849 14
32.5859  8
32.5869 11
32.5879 14
32.5889 12
32.5899 15
32.5909  9
32.5919 13
32.5929  6
32.5939  8
32.5949  9
32.5959  6
32.5969 15
32.5979 10
32.5989 12
32.5999 13
32.6009  8
32.6019 12
32.6029  5
32.6039  8
32.6049 10
32.6059 12
32.6069  8
32.6079 10
32.6089 15
32.6099 11
32.6109  9
32.6119 16
32.6129 14
32.6139  8
32.6149  5
32.6159  9
32.6169 14
32.6179 15
32.6189  9
32.6199  4
32.6209 15
32.6219 16
32.6229  8
32.6239 19
32.6249  6
32.6259 11
32.6269 13
32.6279 14
32.6289 14
32.6299  9
32.6309  8
32.6319 11
32.6329 12
32.6339 13
32.6349 18
