104.48630 0.0
104.48830 1.0
104.49030 0.0
104.49230 0.0
104.49430 2.0
104.49630 1.0
104.49830 1.0
104.50030 0.0
104.50230 2.0
104.50430 4.0
104.50630 1.0
104.50830 1.0
104.51030 0.0
104.51230 0.0
104.51430 2.0
104.51630 1.0
104.51830 4.0
104.52030 1.0
104.52230 1.0
104.52430 0.0
104.52630 4.0
104.52830 1.0
104.53030 2.0
104.53230 2.0
104.53430 3.0
104.53630 0.0
104.53830 0.0
104.54030 2.0
104.54230 1.0
104.54430 0.0
104.54630 0.0
104.54830 2.0
104.55030 1.0
104.55230 0.0
104.55430 3.0
104.55630 0.0
104.55830 3.0
104.56030 2.0
104.56230 2.0
104.56430 1.0
104.56630 1.0
104.56830 1.0
104.57030 3.0
104.57230 2.0
104.57430 1.0
104.57630 1.0
104.57830 2.0
104.58030 1.0
104.58230 2.0
104.58430 1.0
104.58630 1.0
104.58830 3.0
104.59030 4.0
104.59230 2.0
104.59430 1.0
104.59630 1.0
104.59830 4.0
104.60030 2.0
104.60230 2.0
104.60430 2.0
104.60630 4.0
104.60830 1.0
104.61030 4.0
104.61230 2.0
104.61430 2.0
104.61630 3.0
104.61830 3.0
104.62030 1.0
104.62230 2.0
104.62430 1.0
104.62630 8.0
104.62830 3.0
104.63030 5.0
104.63230 5.0
104.63430 5.0
104.63630 8.0
104.63830 3.0
104.64030 3.0
104.64230 5.0
104.64430 5.0
104.64630 1.0
104.64830 7.0
104.65030 5.0
104.65230 5.0
104.65430 4.0
104.65630 9.0
104.65830 4.0
104.66030 6.0
104.66230 1.0
104.66430 4.0
104.66630 7.0
104.66830 5.0
104.67030 7.0
104.67230 7.0
104.67430 5.0
104.67630 11.0
104.67830 6.0
104.68030 8.0
104.68230 7.0
104.68430 12.0
104.68630 9.0
104.68830 9.0
104.69030 9.0
104.69230 11.0
104.69430 11.0
104.69630 10.0
104.69830 12.0
104.70030 14.0
104.70230 16.0
104.70430 8.0
104.70630 8.0
104.70830 16.0
104.71030 12.0
104.71230 13.0
104.71430 14.0
104.71630 14.0
104.71830 11.0
104.72030 12.0
104.72230 12.0
104.72430 17.0
104.72630 15.0
104.72830 21.0
104.73030 22.0
104.73230 12.0
104.73430 20.0
104.73630 14.0
104.73830 14.0
104.74030 16.0
104.74230 22.0
104.74430 12.0
104.74630 16.0
104.74830 20.0
104.75030 26.0
104.75230 19.0
104.75430 18.0
104.75630 19.0
104.75830 17.0
104.76030 22.0
104.76230 31.0
104.76430 24.0
104.76630 32.0
104.76830 30.0
104.77030 24.0
104.77230 33.0
104.77430 39.0
104.77630 27.0
104.77830 49.0
104.78030 35.0
104.78230 39.0
104.78430 45.0
104.78630 30.0
104.78830 43.0
104.79030 47.0
104.79230 59.0
104.79430 60.0
104.79630 55.0
104.79830 61.0
104.80030 55.0
104.80230 59.0
104.80430 61.0
104.80630 87.0
104.80830 76.0
104.81030 60.0
104.81230 96.0
104.81430 82.0
104.81630 91.0
104.81830 95.0
104.82030 105.0
104.82230 89.0
104.82430 116.0
104.82630 136.0
104.82830 127.0
104.83030 159.0
104.83230 179.0
104.83430 167.0
104.83630 177.0
104.83830 204.0
104.84030 186.0
104.84230 214.0
104.84430 252.0
104.84630 268.0
104.84830 320.0
104.85030 303.0
104.85230 343.0
104.85430 373.0
104.85630 389.0
104.85830 427.0
104.86030 486.0
104.86230 529.0
104.86430 517.0
104.86630 557.0
104.86830 653.0
104.87030 716.0
104.87230 779.0
104.87430 784.0
104.87630 846.0
104.87830 935.0
104.88030 965.0
104.88230 1005.0
104.88430 1103.0
104.88630 1216.0
104.88830 1303.0
104.89030 1489.0
104.89230 1452.0
104.89430 1617.0
104.89630 1693.0
104.89830 1912.0
104.90030 1996.0
104.90230 2124.0
104.90430 2281.0
104.90630 2442.0
104.90830 2639.0
104.91030 2835.0
104.91230 3136.0
104.91430 3292.0
104.91630 3451.0
104.91830 3679.0
104.92030 3794.0
104.92230 4043.0
104.92430 4129.0
104.92630 4308.0
104.92830 4314.0
104.93030 4412.0
104.93230 4681.0
104.93430 4680.0
104.93630 4623.0
104.93830 4456.0
104.94030 4387.0
104.94230 4338.0
104.94430 4197.0
104.94630 3917.0
104.94830 3785.0
104.95030 3566.0
104.95230 3459.0
104.95430 3189.0
104.95630 2955.0
104.95830 2863.0
104.96030 2604.0
104.96230 2345.0
104.96430 2155.0
104.96630 2009.0
104.96830 1762.0
104.97030 1671.0
104.97230 1564.0
104.97430 1430.0
104.97630 1232.0
104.97830 1177.0
104.98030 1039.0
104.98230 980.0
104.98430 877.0
104.98630 800.0
104.98830 687.0
104.99030 708.0
104.99230 572.0
104.99430 546.0
104.99630 445.0
104.99830 444.0
105.00030 400.0
105.00230 371.0
105.00430 324.0
105.00630 307.0
105.00830 254.0
105.01030 251.0
105.01230 213.0
105.01430 247.0
105.01630 192.0
105.01830 185.0
105.02030 176.0
105.02230 144.0
105.02430 137.0
105.02630 132.0
105.02830 119.0
105.03030 117.0
105.03230 110.0
105.03430 113.0
105.03630 108.0
105.03830 100.0
105.04030 94.0
105.04230 81.0
105.04430 79.0
105.04630 69.0
105.04830 76.0
105.05030 58.0
105.05230 66.0
105.05430 58.0
105.05630 55.0
105.05830 49.0
105.06030 51.0
105.06230 35.0
105.06430 57.0
105.06630 32.0
105.06830 43.0
105.07030 38.0
105.07230 30.0
105.07430 29.0
105.07630 31.0
105.07830 36.0
105.08030 29.0
105.08230 30.0
105.08430 21.0
105.08630 27.0
105.08830 19.0
105.09030 31.0
105.09230 24.0
105.09430 25.0
105.09630 28.0
105.09830 24.0
105.10030 20.0
105.10230 17.0
105.10430 19.0
105.10630 15.0
105.10830 14.0
105.11030 12.0
105.11230 4.0
105.11430 18.0
105.11630 11.0
105.11830 14.0
105.12030 20.0
105.12230 19.0
105.12430 16.0
105.12630 12.0
105.12830 19.0
105.13030 22.0
105.13230 13.0
105.13430 12.0
105.13630 10.0
105.13830 6.0
105.14030 17.0
105.14230 10.0
105.14430 7.0
105.14630 9.0
105.14830 12.0
105.15030 13.0
105.15230 8.0
105.15430 11.0
105.15630 5.0
105.15830 7.0
105.16030 9.0
105.16230 9.0
105.16430 18.0
105.16630 7.0
105.16830 8.0
105.17030 7.0
105.17230 12.0
105.17430 8.0
105.17630 4.0
105.17830 13.0
105.18030 4.0
105.18230 6.0
105.18430 5.0
105.18630 5.0
105.18830 7.0
105.19030 8.0
105.19230 7.0
105.19430 9.0
105.19630 10.0
105.19830 5.0
105.20030 5.0
105.20230 5.0
105.20430 7.0
105.20630 8.0
105.20830 6.0
105.21030 5.0
105.21230 1.0
105.21430 9.0
105.21630 5.0
105.21830 3.0
105.22030 3.0
105.22230 1.0
105.22430 2.0
105.22630 6.0
105.22830 7.0
105.23030 5.0
105.23230 5.0
105.23430 1.0
105.23630 2.0
105.23830 6.0
105.24030 5.0
105.24230 4.0
105.24430 3.0
105.24630 11.0
105.24830 6.0
105.25030 5.0
105.25230 1.0
105.25430 3.0
105.25630 1.0
105.25830 4.0
105.26030 6.0
105.26230 0.0
105.26430 1.0
105.26630 4.0
105.26830 1.0
105.27030 2.0
105.27230 1.0
105.27430 3.0
105.27630 1.0
105.27830 0.0
105.28030 1.0
105.28230 2.0
105.28430 2.0
105.28630 1.0
105.28830 1.0
105.29030 1.0
105.29230 1.0
105.29430 4.0
105.29630 2.0
105.29830 1.0
105.30030 4.0
105.30230 1.0
105.30430 3.0
105.30630 0.0
105.30830 1.0
105.31030 0.0
105.31230 1.0
105.31430 2.0
105.31630 2.0
105.31830 2.0
105.32030 1.0
105.32230 1.0
105.32430 1.0
105.32630 0.0
105.32830 1.0
105.33030 2.0
105.33230 0.0
105.33430 1.0
105.33630 1.0
105.33830 0.0
105.34030 0.0
105.34230 3.0
105.34430 1.0
105.34630 2.0
105.34830 4.0
105.35030 1.0
105.35230 3.0
105.35430 2.0
105.35630 4.0
105.35830 0.0
105.36030 1.0
105.36230 2.0
105.36430 2.0
105.36630 1.0
105.36830 0.0
105.37030 0.0
105.37230 0.0
105.37430 1.0
105.37630 2.0
105.37830 1.0
105.38030 2.0
105.38230 1.0
