10.010465140 258.0
10.023595423 278.0
10.036725705 281.0
10.049855988 273.0
10.062986271 266.0
10.076116553 287.0
10.089246836 318.0
10.102377119 283.0
10.115507401 273.0
10.128637684 300.0
10.141767967 270.0
10.154898249 284.0
10.168028532 271.0
10.181158815 290.0
10.194289097 282.0
10.207419380 271.0
10.220549663 287.0
10.233679946 262.0
10.246810228 287.0
10.259940511 282.0
10.273070794 288.0
10.286201076 312.0
10.299331359 269.0
10.312461642 281.0
10.325591924 264.0
10.338722207 277.0
10.351852490 270.0
10.364982772 276.0
10.378113055 262.0
10.391243338 303.0
10.404373620 277.0
10.417503903 272.0
10.430634186 303.0
10.443764468 303.0
10.456894751 279.0
10.470025034 246.0
10.483155316 292.0
10.496285599 261.0
10.509415882 270.0
10.522546164 276.0
10.535676447 301.0
10.548806730 290.0
10.561937012 286.0
10.575067295 255.0
10.588197578 269.0
10.601327860 295.0
10.614458143 258.0
10.627588426 297.0
10.640718709 266.0
10.653848991 306.0
10.666979274 287.0
10.680109557 271.0
10.693239839 243.0
10.706370122 257.0
10.719500405 308.0
10.732630687 232.0
10.745760970 277.0
10.758891253 282.0
10.772021535 271.0
10.785151818 245.0
10.798282101 320.0
10.811412383 278.0
10.824542666 260.0
10.837672949 304.0
10.850803231 291.0
10.863933514 267.0
10.877063797 226.0
10.890194079 262.0
10.903324362 277.0
10.916454645 315.0
10.929584927 276.0
10.942715210 265.0
10.955845493 259.0
10.968975775 265.0
10.982106058 317.0
10.995236341 298.0
11.008366623 265.0
11.021496906 265.0
11.034627189 259.0
11.047757472 275.0
11.060887754 289.0
11.074018037 277.0
11.087148320 247.0
11.100278602 281.0
11.113408885 288.0
11.126539168 303.0
11.139669450 280.0
11.152799733 291.0
11.165930016 279.0
11.179060298 267.0
11.192190581 284.0
11.205320864 298.0
11.218451146 283.0
11.231581429 319.0
11.244711712 272.0
11.257841994 259.0
11.270972277 288.0
11.284102560 315.0
11.297232842 280.0
11.310363125 265.0
11.323493408 286.0
11.336623690 301.0
11.349753973 282.0
11.362884256 274.0
11.376014538 274.0
11.389144821 285.0
11.402275104 264.0
11.415405386 234.0
11.428535669 310.0
11.441665952 286.0
11.454796235 288.0
11.467926517 269.0
11.481056800 291.0
11.494187083 222.0
11.507317365 276.0
11.520447648 292.0
11.533577931 259.0
11.546708213 277.0
11.559838496 240.0
11.572968779 275.0
11.586099061 304.0
11.599229344 265.0
11.612359627 264.0
11.625489909 264.0
11.638620192 298.0
11.651750475 290.0
11.664880757 278.0
11.678011040 280.0
11.691141323 291.0
11.704271605 238.0
11.717401888 299.0
11.730532171 271.0
11.743662453 272.0
11.756792736 291.0
11.769923019 289.0
11.783053301 291.0
11.796183584 285.0
11.809313867 287.0
11.822444149 276.0
11.835574432 261.0
11.848704715 272.0
11.861834998 290.0
11.874965280 271.0
11.888095563 274.0
11.901225846 287.0
11.914356128 280.0
11.927486411 261.0
11.940616694 278.0
11.953746976 271.0
11.966877259 290.0
11.980007542 269.0
11.993137824 287.0
12.006268107 269.0
12.019398390 271.0
12.032528672 277.0
12.045658955 300.0
12.058789238 267.0
12.071919520 267.0
12.085049803 277.0
12.098180086 264.0
12.111310368 306.0
12.124440651 259.0
12.137570934 262.0
12.150701216 273.0
12.163831499 273.0
12.176961782 260.0
12.190092064 272.0
12.203222347 231.0
12.216352630 257.0
12.229482912 285.0
12.242613195 293.0
12.255743478 315.0
12.268873760 249.0
12.282004043 291.0
12.295134326 270.0
12.308264609 272.0
12.321394891 315.0
12.334525174 335.0
12.347655457 246.0
12.360785739 279.0
12.373916022 273.0
12.387046305 287.0
12.400176587 297.0
12.413306870 284.0
12.426437153 301.0
12.439567435 289.0
12.452697718 293.0
12.465828001 275.0
12.478958283 274.0
12.492088566 278.0
12.505218849 282.0
12.518349131 277.0
12.531479414 295.0
12.544609697 289.0
12.557739979 295.0
12.570870262 291.0
12.584000545 287.0
12.597130827 285.0
12.610261110 294.0
12.623391393 288.0
12.636521675 288.0
12.649651958 287.0
12.662782241 300.0
12.675912523 303.0
12.689042806 283.0
12.702173089 275.0
12.715303372 279.0
12.728433654 291.0
12.741563937 309.0
12.754694220 283.0
12.767824502 289.0
12.780954785 285.0
12.794085068 326.0
12.807215350 293.0
12.820345633 292.0
12.833475916 283.0
12.846606198 316.0
12.859736481 304.0
12.872866764 296.0
12.885997046 296.0
12.899127329 280.0
12.912257612 275.0
12.925387894 289.0
12.938518177 323.0
12.951648460 299.0
12.964778742 306.0
12.977909025 297.0
12.991039308 256.0
13.004169590 310.0
13.017299873 301.0
13.030430156 287.0
13.043560438 296.0
13.056690721 277.0
13.069821004 299.0
13.082951286 313.0
13.096081569 284.0
13.109211852 272.0
13.122342135 292.0
13.135472417 298.0
13.148602700 309.0
13.161732983 291.0
13.174863265 294.0
13.187993548 274.0
13.201123831 291.0
13.214254113 320.0
13.227384396 302.0
13.240514679 276.0
13.253644961 299.0
13.266775244 281.0
13.279905527 302.0
13.293035809 310.0
13.306166092 263.0
13.319296375 274.0
13.332426657 300.0
13.345556940 310.0
13.358687223 295.0
13.371817505 302.0
13.384947788 307.0
13.398078071 298.0
13.411208353 310.0
13.424338636 311.0
13.437468919 303.0
13.450599201 312.0
13.463729484 330.0
13.476859767 301.0
13.489990049 297.0
13.503120332 309.0
13.516250615 291.0
13.529380898 270.0
13.542511180 299.0
13.555641463 291.0
13.568771746 327.0
13.581902028 313.0
13.595032311 289.0
13.608162594 293.0
13.621292876 306.0
13.634423159 300.0
13.647553442 326.0
13.660683724 289.0
13.673814007 320.0
13.686944290 288.0
13.700074572 302.0
13.713204855 316.0
13.726335138 303.0
13.739465420 329.0
13.752595703 311.0
13.765725986 274.0
13.778856268 301.0
13.791986551 334.0
13.805116834 307.0
13.818247116 333.0
13.831377399 340.0
13.844507682 340.0
13.857637964 335.0
13.870768247 340.0
13.883898530 368.0
13.897028812 328.0
13.910159095 346.0
13.923289378 326.0
13.936419661 377.0
13.949549943 387.0
13.962680226 337.0
13.975810509 377.0
13.988940791 385.0
14.002071074 353.0
14.015201357 357.0
14.028331639 391.0
14.041461922 412.0
14.054592205 392.0
14.067722487 407.0
14.080852770 403.0
14.093983053 434.0
14.107113335 390.0
14.120243618 415.0
14.133373901 402.0
14.146504183 421.0
14.159634466 391.0
14.172764749 392.0
14.185895031 376.0
14.199025314 393.0
14.212155597 417.0
14.225285879 449.0
14.238416162 412.0
14.251546445 413.0
14.264676727 416.0
14.277807010 435.0
14.290937293 399.0
14.304067575 362.0
14.317197858 403.0
14.330328141 370.0
14.343458424 371.0
14.356588706 380.0
14.369718989 351.0
14.382849272 349.0
14.395979554 366.0
14.409109837 336.0
14.422240120 363.0
14.435370402 336.0
14.448500685 327.0
14.461630968 356.0
14.474761250 304.0
14.487891533 306.0
14.501021816 347.0
14.514152098 335.0
14.527282381 325.0
14.540412664 376.0
14.553542946 308.0
14.566673229 318.0
14.579803512 313.0
14.592933794 306.0
14.606064077 335.0
14.619194360 330.0
14.632324642 305.0
14.645454925 330.0
14.658585208 312.0
14.671715490 334.0
14.684845773 363.0
14.697976056 306.0
14.711106338 313.0
14.724236621 313.0
14.737366904 282.0
14.750497187 246.0
14.763627469 306.0
14.776757752 318.0
14.789888035 334.0
14.803018317 334.0
14.816148600 272.0
14.829278883 315.0
14.842409165 308.0
14.855539448 330.0
14.868669731 302.0
14.881800013 300.0
14.894930296 300.0
14.908060579 289.0
14.921190861 308.0
14.934321144 324.0
14.947451427 293.0
14.960581709 297.0
14.973711992 282.0
14.986842275 344.0
14.999972557 305.0
15.013102840 297.0
15.026233123 307.0
15.039363405 293.0
15.052493688 312.0
15.065623971 298.0
15.078754253 297.0
15.091884536 311.0
15.105014819 301.0
15.118145101 297.0
15.131275384 294.0
15.144405667 317.0
15.157535950 301.0
15.170666232 312.0
15.183796515 302.0
15.196926798 300.0
15.210057080 329.0
15.223187363 315.0
15.236317646 333.0
15.249447928 325.0
15.262578211 291.0
15.275708494 311.0
15.288838776 305.0
15.301969059 312.0
15.315099342 318.0
15.328229624 281.0
15.341359907 304.0
15.354490190 294.0
15.367620472 277.0
15.380750755 268.0
15.393881038 279.0
15.407011320 269.0
15.420141603 271.0
15.433271886 285.0
15.446402168 290.0
15.459532451 302.0
15.472662734 308.0
15.485793016 287.0
15.498923299 311.0
15.512053582 295.0
15.525183864 282.0
15.538314147 298.0
15.551444430 299.0
15.564574713 323.0
15.577704995 296.0
15.590835278 308.0
15.603965561 269.0
15.617095843 270.0
15.630226126 292.0
15.643356409 299.0
15.656486691 321.0
15.669616974 298.0
15.682747257 303.0
15.695877539 308.0
15.709007822 281.0
15.722138105 286.0
15.735268387 306.0
15.748398670 313.0
15.761528953 274.0
15.774659235 285.0
15.787789518 306.0
15.800919801 307.0
15.814050083 331.0
15.827180366 315.0
15.840310649 314.0
15.853440931 296.0
15.866571214 326.0
15.879701497 304.0
15.892831779 301.0
15.905962062 308.0
15.919092345 292.0
15.932222627 318.0
15.945352910 297.0
15.958483193 299.0
15.971613476 293.0
15.984743758 299.0
15.997874041 299.0
16.011004324 328.0
16.024134606 290.0
16.037264889 308.0
16.050395172 292.0
16.063525454 338.0
16.076655737 277.0
16.089786020 284.0
16.102916302 316.0
16.116046585 310.0
16.129176868 294.0
16.142307150 322.0
16.155437433 292.0
16.168567716 328.0
16.181697998 306.0
16.194828281 306.0
16.207958564 318.0
16.221088846 312.0
16.234219129 302.0
16.247349412 321.0
16.260479694 307.0
16.273609977 303.0
16.286740260 313.0
16.299870542 312.0
16.313000825 328.0
16.326131108 329.0
16.339261390 338.0
16.352391673 310.0
16.365521956 323.0
16.378652239 333.0
16.391782521 344.0
16.404912804 334.0
16.418043087 305.0
16.431173369 314.0
16.444303652 317.0
16.457433935 315.0
16.470564217 326.0
16.483694500 326.0
16.496824783 344.0
16.509955065 332.0
16.523085348 306.0
16.536215631 338.0
16.549345913 320.0
16.562476196 296.0
16.575606479 336.0
16.588736761 368.0
16.601867044 334.0
16.614997327 332.0
16.628127609 303.0
16.641257892 308.0
16.654388175 338.0
16.667518457 336.0
16.680648740 342.0
16.693779023 333.0
16.706909305 371.0
16.720039588 360.0
16.733169871 295.0
16.746300153 337.0
16.759430436 323.0
16.772560719 329.0
16.785691001 345.0
16.798821284 323.0
16.811951567 332.0
16.825081850 336.0
16.838212132 351.0
16.851342415 345.0
16.864472698 335.0
16.877602980 362.0
16.890733263 340.0
16.903863546 348.0
16.916993828 350.0
16.930124111 371.0
16.943254394 390.0
16.956384676 399.0
16.969514959 463.0
16.982645242 477.0
16.995775524 548.0
17.008905807 625.0
17.022036090 854.0
17.035166372 1110.0
17.048296655 1344.0
17.061426938 1515.0
17.074557220 1756.0
17.087687503 1986.0
17.100817786 2107.0
17.113948068 2248.0
17.127078351 2387.0
17.140208634 2321.0
17.153338916 2256.0
17.166469199 1937.0
17.179599482 1420.0
17.192729764 1002.0
17.205860047 678.0
17.218990330 495.0
17.232120613 427.0
17.245250895 392.0
17.258381178 397.0
17.271511461 349.0
17.284641743 350.0
17.297772026 364.0
17.310902309 309.0
17.324032591 345.0
17.337162874 334.0
17.350293157 297.0
17.363423439 317.0
17.376553722 321.0
17.389684005 276.0
17.402814287 314.0
17.415944570 296.0
17.429074853 318.0
17.442205135 331.0
17.455335418 327.0
17.468465701 305.0
17.481595983 293.0
17.494726266 286.0
17.507856549 288.0
17.520986831 309.0
17.534117114 320.0
17.547247397 289.0
17.560377679 274.0
17.573507962 308.0
17.586638245 276.0
17.599768527 318.0
17.612898810 290.0
17.626029093 289.0
17.639159376 265.0
17.652289658 265.0
17.665419941 283.0
17.678550224 322.0
17.691680506 282.0
17.704810789 287.0
17.717941072 285.0
17.731071354 275.0
17.744201637 275.0
17.757331920 287.0
17.770462202 286.0
17.783592485 268.0
17.796722768 296.0
17.809853050 288.0
17.822983333 296.0
17.836113616 287.0
17.849243898 262.0
17.862374181 258.0
17.875504464 286.0
17.888634746 269.0
17.901765029 260.0
17.914895312 298.0
17.928025594 242.0
17.941155877 322.0
17.954286160 270.0
17.967416442 280.0
17.980546725 280.0
17.993677008 263.0
18.006807290 295.0
18.019937573 255.0
18.033067856 307.0
18.046198139 258.0
18.059328421 271.0
18.072458704 297.0
18.085588987 257.0
18.098719269 273.0
18.111849552 273.0
18.124979835 277.0
18.138110117 266.0
18.151240400 268.0
18.164370683 263.0
18.177500965 269.0
18.190631248 268.0
18.203761531 282.0
18.216891813 282.0
18.230022096 298.0
18.243152379 276.0
18.256282661 286.0
18.269412944 267.0
18.282543227 247.0
18.295673509 282.0
18.308803792 288.0
18.321934075 258.0
18.335064357 247.0
18.348194640 257.0
18.361324923 258.0
18.374455205 289.0
18.387585488 285.0
18.400715771 276.0
18.413846053 255.0
18.426976336 263.0
18.440106619 258.0
18.453236902 261.0
18.466367184 280.0
18.479497467 243.0
18.492627750 274.0
18.505758032 261.0
18.518888315 265.0
18.532018598 243.0
18.545148880 257.0
18.558279163 233.0
18.571409446 279.0
18.584539728 256.0
18.597670011 285.0
18.610800294 242.0
18.623930576 283.0
18.637060859 272.0
18.650191142 261.0
18.663321424 245.0
18.676451707 275.0
18.689581990 289.0
18.702712272 250.0
18.715842555 262.0
18.728972838 249.0
18.742103120 281.0
18.755233403 259.0
18.768363686 266.0
18.781493968 244.0
18.794624251 284.0
18.807754534 277.0
18.820884816 294.0
18.834015099 234.0
18.847145382 286.0
18.860275665 260.0
18.873405947 278.0
18.886536230 292.0
18.899666513 224.0
18.912796795 225.0
18.925927078 262.0
18.939057361 273.0
18.952187643 273.0
18.965317926 264.0
18.978448209 263.0
18.991578491 260.0
19.004708774 242.0
19.017839057 243.0
19.030969339 269.0
19.044099622 260.0
19.057229905 269.0
19.070360187 242.0
19.083490470 247.0
19.096620753 264.0
19.109751035 246.0
19.122881318 273.0
19.136011601 241.0
19.149141883 233.0
19.162272166 261.0
19.175402449 281.0
19.188532731 246.0
19.201663014 290.0
19.214793297 243.0
19.227923579 291.0
19.241053862 298.0
19.254184145 242.0
19.267314428 278.0
19.280444710 257.0
19.293574993 266.0
19.306705276 255.0
19.319835558 238.0
19.332965841 261.0
19.346096124 245.0
19.359226406 245.0
19.372356689 241.0
19.385486972 234.0
19.398617254 271.0
19.411747537 270.0
19.424877820 274.0
19.438008102 243.0
19.451138385 248.0
19.464268668 257.0
19.477398950 276.0
19.490529233 245.0
19.503659516 268.0
19.516789798 206.0
19.529920081 261.0
19.543050364 257.0
19.556180646 233.0
19.569310929 230.0
19.582441212 230.0
19.595571494 269.0
19.608701777 258.0
19.621832060 232.0
19.634962342 234.0
19.648092625 243.0
19.661222908 265.0
19.674353191 247.0
19.687483473 242.0
19.700613756 242.0
19.713744039 263.0
19.726874321 228.0
19.740004604 229.0
19.753134887 240.0
19.766265169 256.0
19.779395452 225.0
19.792525735 230.0
19.805656017 217.0
19.818786300 246.0
19.831916583 241.0
19.845046865 233.0
19.858177148 265.0
19.871307431 247.0
19.884437713 256.0
19.897567996 234.0
19.910698279 261.0
19.923828561 244.0
19.936958844 260.0
19.950089127 222.0
19.963219409 230.0
19.976349692 211.0
19.989479975 225.0
20.002610257 256.0
20.015740540 246.0
20.028870823 258.0
20.042001105 241.0
20.055131388 259.0
20.068261671 256.0
20.081391954 224.0
20.094522236 220.0
20.107652519 278.0
20.120782802 243.0
20.133913084 214.0
20.147043367 255.0
20.160173650 255.0
20.173303932 241.0
20.186434215 225.0
20.199564498 240.0
20.212694780 228.0
20.225825063 264.0
20.238955346 240.0
20.252085628 230.0
20.265215911 248.0
20.278346194 255.0
20.291476476 258.0
20.304606759 269.0
20.317737042 258.0
20.330867324 233.0
20.343997607 263.0
20.357127890 260.0
20.370258172 291.0
20.383388455 317.0
20.396518738 321.0
20.409649020 318.0
20.422779303 324.0
20.435909586 322.0
20.449039868 323.0
20.462170151 365.0
20.475300434 354.0
20.488430717 353.0
20.501560999 337.0
20.514691282 382.0
20.527821565 376.0
20.540951847 364.0
20.554082130 332.0
20.567212413 343.0
20.580342695 301.0
20.593472978 344.0
20.606603261 284.0
20.619733543 258.0
20.632863826 263.0
20.645994109 230.0
20.659124391 239.0
20.672254674 240.0
20.685384957 250.0
20.698515239 267.0
20.711645522 219.0
20.724775805 259.0
20.737906087 293.0
20.751036370 272.0
20.764166653 299.0
20.777296935 261.0
20.790427218 280.0
20.803557501 276.0
20.816687783 263.0
20.829818066 286.0
20.842948349 277.0
20.856078631 295.0
20.869208914 311.0
20.882339197 295.0
20.895469479 322.0
20.908599762 302.0
20.921730045 318.0
20.934860328 337.0
20.947990610 330.0
20.961120893 310.0
20.974251176 303.0
20.987381458 333.0
21.000511741 305.0
21.013642024 314.0
21.026772306 326.0
21.039902589 338.0
21.053032872 336.0
21.066163154 284.0
21.079293437 348.0
21.092423720 315.0
21.105554002 316.0
21.118684285 318.0
21.131814568 350.0
21.144944850 313.0
21.158075133 340.0
21.171205416 323.0
21.184335698 333.0
21.197465981 318.0
21.210596264 324.0
21.223726546 343.0
21.236856829 329.0
21.249987112 309.0
21.263117394 333.0
21.276247677 332.0
21.289377960 329.0
21.302508242 306.0
21.315638525 338.0
21.328768808 394.0
21.341899091 359.0
21.355029373 323.0
21.368159656 365.0
21.381289939 333.0
21.394420221 299.0
21.407550504 354.0
21.420680787 328.0
21.433811069 292.0
21.446941352 298.0
21.460071635 312.0
21.473201917 302.0
21.486332200 320.0
21.499462483 317.0
21.512592765 300.0
21.525723048 298.0
21.538853331 298.0
21.551983613 297.0
21.565113896 257.0
21.578244179 284.0
21.591374461 266.0
21.604504744 249.0
21.617635027 244.0
21.630765309 221.0
21.643895592 225.0
21.657025875 221.0
21.670156157 205.0
21.683286440 207.0
21.696416723 233.0
21.709547005 196.0
21.722677288 213.0
21.735807571 218.0
21.748937854 217.0
21.762068136 235.0
21.775198419 223.0
21.788328702 237.0
21.801458984 241.0
21.814589267 222.0
21.827719550 223.0
21.840849832 233.0
21.853980115 226.0
21.867110398 220.0
21.880240680 213.0
21.893370963 207.0
21.906501246 213.0
21.919631528 217.0
21.932761811 228.0
21.945892094 228.0
21.959022376 248.0
21.972152659 239.0
21.985282942 256.0
21.998413224 220.0
22.011543507 233.0
22.024673790 187.0
22.037804072 242.0
22.050934355 213.0
22.064064638 228.0
22.077194920 199.0
22.090325203 198.0
22.103455486 204.0
22.116585768 225.0
22.129716051 222.0
22.142846334 211.0
22.155976617 248.0
22.169106899 214.0
22.182237182 227.0
22.195367465 217.0
22.208497747 234.0
22.221628030 207.0
22.234758313 264.0
22.247888595 238.0
22.261018878 241.0
22.274149161 222.0
22.287279443 217.0
22.300409726 217.0
22.313540009 229.0
22.326670291 203.0
22.339800574 212.0
22.352930857 236.0
22.366061139 202.0
22.379191422 233.0
22.392321705 216.0
22.405451987 204.0
22.418582270 202.0
22.431712553 214.0
22.444842835 184.0
22.457973118 209.0
22.471103401 198.0
22.484233683 190.0
22.497363966 204.0
22.510494249 193.0
22.523624531 193.0
22.536754814 236.0
22.549885097 232.0
22.563015380 212.0
22.576145662 204.0
22.589275945 191.0
22.602406228 184.0
22.615536510 229.0
22.628666793 210.0
22.641797076 186.0
22.654927358 206.0
22.668057641 225.0
22.681187924 214.0
22.694318206 212.0
22.707448489 215.0
22.720578772 203.0
22.733709054 210.0
22.746839337 216.0
22.759969620 208.0
22.773099902 185.0
22.786230185 195.0
22.799360468 208.0
22.812490750 202.0
22.825621033 206.0
22.838751316 248.0
22.851881598 219.0
22.865011881 237.0
22.878142164 222.0
22.891272446 229.0
22.904402729 203.0
22.917533012 204.0
22.930663294 203.0
22.943793577 196.0
22.956923860 205.0
22.970054143 208.0
22.983184425 202.0
22.996314708 219.0
23.009444991 184.0
23.022575273 223.0
23.035705556 197.0
23.048835839 234.0
23.061966121 232.0
23.075096404 207.0
23.088226687 216.0
23.101356969 196.0
23.114487252 216.0
23.127617535 223.0
23.140747817 231.0
23.153878100 195.0
23.167008383 218.0
23.180138665 195.0
23.193268948 214.0
23.206399231 197.0
23.219529513 220.0
23.232659796 225.0
23.245790079 222.0
23.258920361 207.0
23.272050644 221.0
23.285180927 226.0
23.298311209 207.0
23.311441492 202.0
23.324571775 241.0
23.337702057 248.0
23.350832340 225.0
23.363962623 211.0
23.377092906 181.0
23.390223188 217.0
23.403353471 219.0
23.416483754 229.0
23.429614036 214.0
23.442744319 267.0
23.455874602 234.0
23.469004884 222.0
23.482135167 220.0
23.495265450 220.0
23.508395732 228.0
23.521526015 225.0
23.534656298 256.0
23.547786580 212.0
23.560916863 230.0
23.574047146 219.0
23.587177428 212.0
23.600307711 237.0
23.613437994 226.0
23.626568276 257.0
23.639698559 223.0
23.652828842 208.0
23.665959124 223.0
23.679089407 255.0
23.692219690 248.0
23.705349972 222.0
23.718480255 203.0
23.731610538 212.0
23.744740820 227.0
23.757871103 217.0
23.771001386 248.0
23.784131669 278.0
23.797261951 257.0
23.810392234 206.0
23.823522517 259.0
23.836652799 203.0
23.849783082 208.0
23.862913365 222.0
23.876043647 235.0
23.889173930 205.0
23.902304213 209.0
23.915434495 204.0
23.928564778 196.0
23.941695061 201.0
23.954825343 192.0
23.967955626 226.0
23.981085909 221.0
23.994216191 202.0
24.007346474 199.0
24.020476757 195.0
24.033607039 196.0
24.046737322 192.0
24.059867605 175.0
24.072997887 195.0
24.086128170 187.0
24.099258453 196.0
24.112388735 194.0
24.125519018 206.0
24.138649301 211.0
24.151779583 200.0
24.164909866 210.0
24.178040149 179.0
24.191170432 195.0
24.204300714 212.0
24.217430997 204.0
24.230561280 193.0
24.243691562 193.0
24.256821845 214.0
24.269952128 197.0
24.283082410 208.0
24.296212693 179.0
24.309342976 176.0
24.322473258 223.0
24.335603541 198.0
24.348733824 175.0
24.361864106 178.0
24.374994389 214.0
24.388124672 206.0
24.401254954 196.0
24.414385237 204.0
24.427515520 207.0
24.440645802 210.0
24.453776085 191.0
24.466906368 211.0
24.480036650 220.0
24.493166933 200.0
24.506297216 194.0
24.519427498 186.0
24.532557781 200.0
24.545688064 177.0
24.558818346 175.0
24.571948629 177.0
24.585078912 186.0
24.598209195 181.0
24.611339477 188.0
24.624469760 196.0
24.637600043 190.0
24.650730325 186.0
24.663860608 185.0
24.676990891 188.0
24.690121173 195.0
24.703251456 196.0
24.716381739 179.0
24.729512021 183.0
24.742642304 189.0
24.755772587 190.0
24.768902869 161.0
24.782033152 206.0
24.795163435 175.0
24.808293717 204.0
24.821424000 195.0
24.834554283 184.0
24.847684565 175.0
24.860814848 183.0
24.873945131 174.0
24.887075413 201.0
24.900205696 192.0
24.913335979 183.0
24.926466261 183.0
24.939596544 186.0
24.952726827 200.0
24.965857109 168.0
24.978987392 177.0
24.992117675 179.0
25.005247958 162.0
25.018378240 189.0
25.031508523 194.0
25.044638806 197.0
25.057769088 177.0
25.070899371 192.0
25.084029654 186.0
25.097159936 172.0
25.110290219 189.0
25.123420502 180.0
25.136550784 180.0
25.149681067 182.0
25.162811350 182.0
25.175941632 204.0
25.189071915 176.0
25.202202198 158.0
25.215332480 181.0
25.228462763 190.0
25.241593046 184.0
25.254723328 186.0
25.267853611 195.0
25.280983894 171.0
25.294114176 174.0
25.307244459 177.0
25.320374742 170.0
25.333505024 166.0
25.346635307 170.0
25.359765590 179.0
25.372895872 167.0
25.386026155 181.0
25.399156438 160.0
25.412286720 173.0
25.425417003 171.0
25.438547286 172.0
25.451677569 185.0
25.464807851 192.0
25.477938134 168.0
25.491068417 198.0
25.504198699 160.0
25.517328982 204.0
25.530459265 187.0
25.543589547 184.0
25.556719830 171.0
25.569850113 162.0
25.582980395 165.0
25.596110678 180.0
25.609240961 188.0
25.622371243 165.0
25.635501526 167.0
25.648631809 160.0
25.661762091 183.0
25.674892374 177.0
25.688022657 175.0
25.701152939 152.0
25.714283222 177.0
25.727413505 189.0
25.740543787 183.0
25.753674070 160.0
25.766804353 192.0
25.779934635 176.0
25.793064918 174.0
25.806195201 217.0
25.819325483 160.0
25.832455766 199.0
25.845586049 168.0
25.858716332 163.0
25.871846614 174.0
25.884976897 168.0
25.898107180 209.0
25.911237462 144.0
25.924367745 213.0
25.937498028 218.0
25.950628310 169.0
25.963758593 165.0
25.976888876 162.0
25.990019158 199.0
26.003149441 188.0
26.016279724 193.0
26.029410006 177.0
26.042540289 157.0
26.055670572 190.0
26.068800854 186.0
26.081931137 169.0
26.095061420 186.0
26.108191702 190.0
26.121321985 181.0
26.134452268 175.0
26.147582550 174.0
26.160712833 181.0
26.173843116 154.0
26.186973398 175.0
26.200103681 150.0
26.213233964 188.0
26.226364246 177.0
26.239494529 173.0
26.252624812 166.0
26.265755095 184.0
26.278885377 161.0
26.292015660 167.0
26.305145943 181.0
26.318276225 165.0
26.331406508 181.0
26.344536791 197.0
26.357667073 183.0
26.370797356 149.0
26.383927639 163.0
26.397057921 162.0
26.410188204 193.0
26.423318487 164.0
26.436448769 169.0
26.449579052 194.0
26.462709335 163.0
26.475839617 165.0
26.488969900 171.0
26.502100183 172.0
26.515230465 157.0
26.528360748 150.0
26.541491031 161.0
26.554621313 190.0
26.567751596 195.0
26.580881879 160.0
26.594012161 165.0
26.607142444 187.0
26.620272727 188.0
26.633403009 165.0
26.646533292 169.0
26.659663575 150.0
26.672793858 195.0
26.685924140 177.0
26.699054423 172.0
26.712184706 183.0
26.725314988 201.0
26.738445271 175.0
26.751575554 148.0
26.764705836 167.0
26.777836119 156.0
26.790966402 182.0
26.804096684 177.0
26.817226967 153.0
26.830357250 185.0
26.843487532 161.0
26.856617815 154.0
26.869748098 157.0
26.882878380 201.0
26.896008663 162.0
26.909138946 189.0
26.922269228 177.0
26.935399511 165.0
26.948529794 201.0
26.961660076 152.0
26.974790359 174.0
26.987920642 172.0
27.001050924 168.0
27.014181207 167.0
27.027311490 153.0
27.040441772 186.0
27.053572055 161.0
27.066702338 169.0
27.079832621 177.0
27.092962903 183.0
27.106093186 186.0
27.119223469 170.0
27.132353751 177.0
27.145484034 166.0
27.158614317 149.0
27.171744599 190.0
27.184874882 154.0
27.198005165 166.0
27.211135447 163.0
27.224265730 162.0
27.237396013 165.0
27.250526295 160.0
27.263656578 167.0
27.276786861 172.0
27.289917143 187.0
27.303047426 198.0
27.316177709 184.0
27.329307991 146.0
27.342438274 160.0
27.355568557 176.0
27.368698839 171.0
27.381829122 161.0
27.394959405 172.0
27.408089687 178.0
27.421219970 173.0
27.434350253 177.0
27.447480535 166.0
27.460610818 179.0
27.473741101 199.0
27.486871384 197.0
27.500001666 184.0
27.513131949 157.0
27.526262232 169.0
27.539392514 159.0
27.552522797 170.0
27.565653080 176.0
27.578783362 190.0
27.591913645 176.0
27.605043928 165.0
27.618174210 190.0
27.631304493 160.0
27.644434776 209.0
27.657565058 188.0
27.670695341 168.0
27.683825624 183.0
27.696955906 162.0
27.710086189 194.0
27.723216472 170.0
27.736346754 169.0
27.749477037 183.0
27.762607320 195.0
27.775737602 193.0
27.788867885 185.0
27.801998168 198.0
27.815128450 192.0
27.828258733 181.0
27.841389016 204.0
27.854519298 168.0
27.867649581 195.0
27.880779864 153.0
27.893910147 196.0
27.907040429 194.0
27.920170712 214.0
27.933300995 206.0
27.946431277 207.0
27.959561560 196.0
27.972691843 208.0
27.985822125 200.0
27.998952408 232.0
28.012082691 248.0
28.025212973 227.0
28.038343256 262.0
28.051473539 216.0
28.064603821 260.0
28.077734104 228.0
28.090864387 256.0
28.103994669 237.0
28.117124952 259.0
28.130255235 270.0
28.143385517 284.0
28.156515800 262.0
28.169646083 307.0
28.182776365 300.0
28.195906648 330.0
28.209036931 299.0
28.222167213 314.0
28.235297496 330.0
28.248427779 298.0
28.261558061 292.0
28.274688344 321.0
28.287818627 323.0
28.300948910 331.0
28.314079192 351.0
28.327209475 343.0
28.340339758 360.0
28.353470040 371.0
28.366600323 335.0
28.379730606 330.0
28.392860888 354.0
28.405991171 353.0
28.419121454 350.0
28.432251736 339.0
28.445382019 328.0
28.458512302 319.0
28.471642584 317.0
28.484772867 343.0
28.497903150 325.0
28.511033432 322.0
28.524163715 282.0
28.537293998 326.0
28.550424280 331.0
28.563554563 289.0
28.576684846 295.0
28.589815128 279.0
28.602945411 271.0
28.616075694 262.0
28.629205976 257.0
28.642336259 256.0
28.655466542 267.0
28.668596824 225.0
28.681727107 230.0
28.694857390 204.0
28.707987673 222.0
28.721117955 206.0
28.734248238 210.0
28.747378521 228.0
28.760508803 205.0
28.773639086 225.0
28.786769369 202.0
28.799899651 209.0
28.813029934 192.0
28.826160217 195.0
28.839290499 194.0
28.852420782 168.0
28.865551065 212.0
28.878681347 210.0
28.891811630 171.0
28.904941913 208.0
28.918072195 188.0
28.931202478 164.0
28.944332761 181.0
28.957463043 180.0
28.970593326 160.0
28.983723609 150.0
28.996853891 205.0
29.009984174 176.0
29.023114457 168.0
29.036244739 166.0
29.049375022 175.0
29.062505305 205.0
29.075635587 161.0
29.088765870 169.0
29.101896153 167.0
29.115026436 185.0
29.128156718 159.0
29.141287001 174.0
29.154417284 170.0
29.167547566 165.0
29.180677849 170.0
29.193808132 158.0
29.206938414 150.0
29.220068697 175.0
29.233198980 169.0
29.246329262 192.0
29.259459545 185.0
29.272589828 178.0
29.285720110 154.0
29.298850393 158.0
29.311980676 143.0
29.325110958 164.0
29.338241241 177.0
29.351371524 158.0
29.364501806 153.0
29.377632089 150.0
29.390762372 157.0
29.403892654 160.0
29.417022937 155.0
29.430153220 147.0
29.443283502 178.0
29.456413785 174.0
29.469544068 178.0
29.482674350 163.0
29.495804633 181.0
29.508934916 164.0
29.522065198 145.0
29.535195481 153.0
29.548325764 142.0
29.561456047 142.0
29.574586329 174.0
29.587716612 144.0
29.600846895 168.0
29.613977177 166.0
29.627107460 165.0
29.640237743 160.0
29.653368025 172.0
29.666498308 159.0
29.679628591 175.0
29.692758873 161.0
29.705889156 160.0
29.719019439 150.0
29.732149721 163.0
29.745280004 145.0
29.758410287 169.0
29.771540569 174.0
29.784670852 180.0
29.797801135 148.0
29.810931417 161.0
29.824061700 167.0
29.837191983 173.0
29.850322265 187.0
29.863452548 176.0
29.876582831 152.0
29.889713113 147.0
29.902843396 151.0
29.915973679 184.0
29.929103961 144.0
29.942234244 148.0
29.955364527 173.0
29.968494810 169.0
29.981625092 158.0
29.994755375 168.0
30.007885658 153.0
30.021015940 160.0
30.034146223 174.0
30.047276506 169.0
30.060406788 173.0
30.073537071 141.0
30.086667354 173.0
30.099797636 145.0
30.112927919 163.0
30.126058202 158.0
30.139188484 157.0
30.152318767 152.0
30.165449050 163.0
30.178579332 176.0
30.191709615 155.0
30.204839898 158.0
30.217970180 155.0
30.231100463 180.0
30.244230746 163.0
30.257361028 141.0
30.270491311 161.0
30.283621594 157.0
30.296751876 153.0
30.309882159 194.0
30.323012442 168.0
30.336142724 172.0
30.349273007 150.0
30.362403290 169.0
30.375533573 192.0
30.388663855 148.0
30.401794138 184.0
30.414924421 167.0
30.428054703 146.0
30.441184986 166.0
30.454315269 166.0
30.467445551 154.0
30.480575834 176.0
30.493706117 151.0
30.506836399 150.0
30.519966682 143.0
30.533096965 190.0
30.546227247 161.0
30.559357530 128.0
30.572487813 157.0
30.585618095 165.0
30.598748378 155.0
30.611878661 154.0
30.625008943 157.0
30.638139226 169.0
30.651269509 162.0
30.664399791 156.0
30.677530074 159.0
30.690660357 152.0
30.703790639 152.0
30.716920922 152.0
30.730051205 166.0
30.743181487 164.0
30.756311770 181.0
30.769442053 168.0
30.782572336 172.0
30.795702618 178.0
30.808832901 148.0
30.821963184 160.0
30.835093466 166.0
30.848223749 171.0
30.861354032 146.0
30.874484314 164.0
30.887614597 145.0
30.900744880 146.0
30.913875162 165.0
30.927005445 170.0
30.940135728 170.0
30.953266010 172.0
30.966396293 174.0
30.979526576 152.0
30.992656858 160.0
31.005787141 179.0
31.018917424 180.0
31.032047706 159.0
31.045177989 184.0
31.058308272 185.0
31.071438554 145.0
31.084568837 172.0
31.097699120 167.0
31.110829402 175.0
31.123959685 152.0
31.137089968 174.0
31.150220250 175.0
31.163350533 164.0
31.176480816 178.0
31.189611099 186.0
31.202741381 165.0
31.215871664 184.0
31.229001947 166.0
31.242132229 181.0
31.255262512 169.0
31.268392795 162.0
31.281523077 158.0
31.294653360 177.0
31.307783643 188.0
31.320913925 161.0
31.334044208 186.0
31.347174491 167.0
31.360304773 166.0
31.373435056 154.0
31.386565339 153.0
31.399695621 163.0
31.412825904 145.0
31.425956187 159.0
31.439086469 181.0
31.452216752 175.0
31.465347035 173.0
31.478477317 181.0
31.491607600 172.0
31.504737883 164.0
31.517868165 191.0
31.530998448 162.0
31.544128731 168.0
31.557259013 169.0
31.570389296 173.0
31.583519579 171.0
31.596649862 164.0
31.609780144 192.0
31.622910427 163.0
31.636040710 181.0
31.649170992 168.0
31.662301275 181.0
31.675431558 176.0
31.688561840 152.0
31.701692123 174.0
31.714822406 181.0
31.727952688 165.0
31.741082971 182.0
31.754213254 192.0
31.767343536 171.0
31.780473819 182.0
31.793604102 189.0
31.806734384 163.0
31.819864667 168.0
31.832994950 188.0
31.846125232 184.0
31.859255515 169.0
31.872385798 190.0
31.885516080 172.0
31.898646363 156.0
31.911776646 178.0
31.924906928 167.0
31.938037211 162.0
31.951167494 185.0
31.964297776 180.0
31.977428059 177.0
31.990558342 192.0
32.003688625 174.0
32.016818907 180.0
32.029949190 169.0
32.043079473 192.0
32.056209755 195.0
32.069340038 160.0
32.082470321 202.0
32.095600603 170.0
32.108730886 176.0
32.121861169 182.0
32.134991451 167.0
32.148121734 182.0
32.161252017 172.0
32.174382299 198.0
32.187512582 172.0
32.200642865 200.0
32.213773147 159.0
32.226903430 172.0
32.240033713 192.0
32.253163995 207.0
32.266294278 169.0
32.279424561 170.0
32.292554843 184.0
32.305685126 180.0
32.318815409 181.0
32.331945691 189.0
32.345075974 191.0
32.358206257 187.0
32.371336539 195.0
32.384466822 161.0
32.397597105 166.0
32.410727388 176.0
32.423857670 199.0
32.436987953 198.0
32.450118236 206.0
32.463248518 197.0
32.476378801 187.0
32.489509084 195.0
32.502639366 197.0
32.515769649 205.0
32.528899932 206.0
32.542030214 184.0
32.555160497 197.0
32.568290780 214.0
32.581421062 213.0
32.594551345 181.0
32.607681628 199.0
32.620811910 224.0
32.633942193 199.0
32.647072476 196.0
32.660202758 195.0
32.673333041 201.0
32.686463324 180.0
32.699593606 208.0
32.712723889 203.0
32.725854172 214.0
32.738984454 212.0
32.752114737 219.0
32.765245020 200.0
32.778375302 213.0
32.791505585 239.0
32.804635868 221.0
32.817766151 216.0
32.830896433 219.0
32.844026716 203.0
32.857156999 211.0
32.870287281 217.0
32.883417564 217.0
32.896547847 213.0
32.909678129 257.0
32.922808412 255.0
32.935938695 230.0
32.949068977 208.0
32.962199260 267.0
32.975329543 217.0
32.988459825 244.0
33.001590108 229.0
33.014720391 221.0
33.027850673 261.0
33.040980956 258.0
33.054111239 247.0
33.067241521 243.0
33.080371804 263.0
33.093502087 256.0
33.106632369 275.0
33.119762652 257.0
33.132892935 279.0
33.146023217 304.0
33.159153500 245.0
33.172283783 276.0
33.185414065 258.0
33.198544348 277.0
33.211674631 279.0
33.224804914 284.0
33.237935196 295.0
33.251065479 294.0
33.264195762 258.0
33.277326044 274.0
33.290456327 275.0
33.303586610 311.0
33.316716892 300.0
33.329847175 336.0
33.342977458 325.0
33.356107740 302.0
33.369238023 320.0
33.382368306 328.0
33.395498588 319.0
33.408628871 345.0
33.421759154 354.0
33.434889436 351.0
33.448019719 312.0
33.461150002 366.0
33.474280284 332.0
33.487410567 339.0
33.500540850 396.0
33.513671132 366.0
33.526801415 421.0
33.539931698 373.0
33.553061980 380.0
33.566192263 394.0
33.579322546 424.0
33.592452828 420.0
33.605583111 449.0
33.618713394 413.0
33.631843676 457.0
33.644973959 458.0
33.658104242 494.0
33.671234525 472.0
33.684364807 509.0
33.697495090 537.0
33.710625373 530.0
33.723755655 627.0
33.736885938 622.0
33.750016221 645.0
33.763146503 751.0
33.776276786 851.0
33.789407069 815.0
33.802537351 983.0
33.815667634 1046.0
33.828797917 1112.0
33.841928199 1248.0
33.855058482 1264.0
33.868188765 1517.0
33.881319047 1649.0
33.894449330 1922.0
33.907579613 2064.0
33.920709895 2328.0
33.933840178 2578.0
33.946970461 2792.0
33.960100743 2872.0
33.973231026 3120.0
33.986361309 3449.0
33.999491591 3598.0
34.012621874 3775.0
34.025752157 4014.0
34.038882439 4133.0
34.052012722 4269.0
34.065143005 4460.0
34.078273288 4562.0
34.091403570 4715.0
34.104533853 4770.0
34.117664136 4903.0
34.130794418 5036.0
34.143924701 5343.0
34.157054984 5501.0
34.170185266 5717.0
34.183315549 6114.0
34.196445832 6531.0
34.209576114 6907.0
34.222706397 7459.0
34.235836680 8225.0
34.248966962 9080.0
34.262097245 10405.0
34.275227528 11957.0
34.288357810 14145.0
34.301488093 16978.0
34.314618376 21133.0
34.327748658 27433.0
34.340878941 37311.0
34.354009224 53491.0
34.367139506 82540.0
34.380269789 172720.0
34.393400072 701235.0
34.406530354 2129471.0
34.419660637 3473652.0
34.432790920 3781250.0
34.445921202 3620299.0
34.459051485 3452430.0
34.472181768 3396062.0
34.485312051 3541212.0
34.498442333 3855062.0
34.511572616 3982819.0
34.524702899 3982411.0
34.537833181 3593822.0
34.550963464 3662599.0
34.564093747 4001049.0
34.577224029 3959949.0
34.590354312 4075643.0
34.603484595 4194501.0
34.616614877 3921703.0
34.629745160 3093452.0
34.642875443 1626028.0
34.656005725 472826.0
34.669136008 134107.0
34.682266291 67674.0
34.695396573 44079.0
34.708526856 30796.0
34.721657139 22792.0
34.734787421 18277.0
34.747917704 14062.0
34.761047987 11281.0
34.774178269 9935.0
34.787308552 9016.0
34.800438835 8003.0
34.813569117 7528.0
34.826699400 6919.0
34.839829683 6369.0
34.852959965 6161.0
34.866090248 6022.0
34.879220531 5674.0
34.892350814 5564.0
34.905481096 5333.0
34.918611379 5273.0
34.931741662 5117.0
34.944871944 4842.0
34.958002227 4800.0
34.971132510 4598.0
34.984262792 4552.0
34.997393075 4240.0
35.010523358 3985.0
35.023653640 3931.0
35.036783923 3706.0
35.049914206 3405.0
35.063044488 3267.0
35.076174771 3099.0
35.089305054 2895.0
35.102435336 2773.0
35.115565619 2610.0
35.128695902 2403.0
35.141826184 2144.0
35.154956467 2026.0
35.168086750 1863.0
35.181217032 1716.0
35.194347315 1663.0
35.207477598 1549.0
35.220607880 1420.0
35.233738163 1393.0
35.246868446 1359.0
35.259998728 1343.0
35.273129011 1321.0
35.286259294 1279.0
35.299389577 1282.0
35.312519859 1268.0
35.325650142 1196.0
35.338780425 1221.0
35.351910707 1125.0
35.365040990 1094.0
35.378171273 1097.0
35.391301555 1104.0
35.404431838 1012.0
35.417562121 1033.0
35.430692403 1019.0
35.443822686 986.0
35.456952969 997.0
35.470083251 1006.0
35.483213534 954.0
35.496343817 912.0
35.509474099 922.0
35.522604382 954.0
35.535734665 883.0
35.548864947 943.0
35.561995230 904.0
35.575125513 882.0
35.588255795 799.0
35.601386078 822.0
35.614516361 799.0
35.627646643 831.0
35.640776926 744.0
35.653907209 761.0
35.667037491 772.0
35.680167774 760.0
35.693298057 728.0
35.706428340 733.0
35.719558622 791.0
35.732688905 766.0
35.745819188 786.0
35.758949470 709.0
35.772079753 665.0
35.785210036 659.0
35.798340318 703.0
35.811470601 688.0
35.824600884 661.0
35.837731166 630.0
35.850861449 696.0
35.863991732 682.0
35.877122014 719.0
35.890252297 623.0
35.903382580 698.0
35.916512862 624.0
35.929643145 672.0
35.942773428 661.0
35.955903710 660.0
35.969033993 673.0
35.982164276 666.0
35.995294558 606.0
36.008424841 655.0
36.021555124 657.0
36.034685406 650.0
36.047815689 635.0
36.060945972 698.0
36.074076254 620.0
36.087206537 637.0
36.100336820 621.0
36.113467103 648.0
36.126597385 656.0
36.139727668 648.0
36.152857951 652.0
36.165988233 620.0
36.179118516 610.0
36.192248799 599.0
36.205379081 630.0
36.218509364 585.0
36.231639647 556.0
36.244769929 582.0
36.257900212 624.0
36.271030495 611.0
36.284160777 597.0
36.297291060 593.0
36.310421343 612.0
36.323551625 609.0
36.336681908 615.0
36.349812191 603.0
36.362942473 568.0
36.376072756 588.0
36.389203039 562.0
36.402333321 594.0
36.415463604 613.0
36.428593887 607.0
36.441724169 597.0
36.454854452 607.0
36.467984735 565.0
36.481115017 615.0
36.494245300 570.0
36.507375583 571.0
36.520505866 579.0
36.533636148 634.0
36.546766431 620.0
36.559896714 622.0
36.573026996 604.0
36.586157279 596.0
36.599287562 591.0
36.612417844 669.0
36.625548127 550.0
36.638678410 587.0
36.651808692 604.0
36.664938975 604.0
36.678069258 628.0
36.691199540 594.0
36.704329823 637.0
36.717460106 611.0
36.730590388 597.0
36.743720671 662.0
36.756850954 632.0
36.769981236 623.0
36.783111519 580.0
36.796241802 657.0
36.809372084 601.0
36.822502367 631.0
36.835632650 642.0
36.848762932 582.0
36.861893215 649.0
36.875023498 633.0
36.888153780 630.0
36.901284063 596.0
36.914414346 713.0
36.927544629 654.0
36.940674911 657.0
36.953805194 682.0
36.966935477 655.0
36.980065759 657.0
36.993196042 655.0
37.006326325 666.0
37.019456607 644.0
37.032586890 717.0
37.045717173 664.0
37.058847455 695.0
37.071977738 715.0
37.085108021 664.0
37.098238303 699.0
37.111368586 601.0
37.124498869 599.0
37.137629151 565.0
37.150759434 566.0
37.163889717 541.0
37.177019999 565.0
37.190150282 451.0
37.203280565 453.0
37.216410847 389.0
37.229541130 356.0
37.242671413 320.0
37.255801695 350.0
37.268931978 300.0
37.282062261 295.0
37.295192543 223.0
37.308322826 212.0
37.321453109 202.0
37.334583392 198.0
37.347713674 165.0
37.360843957 188.0
37.373974240 188.0
37.387104522 199.0
37.400234805 178.0
37.413365088 169.0
37.426495370 191.0
37.439625653 176.0
37.452755936 162.0
37.465886218 166.0
37.479016501 161.0
37.492146784 154.0
37.505277066 160.0
37.518407349 162.0
37.531537632 155.0
37.544667914 181.0
37.557798197 140.0
37.570928480 167.0
37.584058762 154.0
37.597189045 142.0
37.610319328 124.0
37.623449610 130.0
37.636579893 114.0
37.649710176 158.0
37.662840458 134.0
37.675970741 145.0
37.689101024 128.0
37.702231306 123.0
37.715361589 136.0
37.728491872 137.0
37.741622155 139.0
37.754752437 143.0
37.767882720 130.0
37.781013003 133.0
37.794143285 138.0
37.807273568 128.0
37.820403851 143.0
37.833534133 120.0
37.846664416 147.0
37.859794699 133.0
37.872924981 151.0
37.886055264 148.0
37.899185547 149.0
37.912315829 131.0
37.925446112 153.0
37.938576395 148.0
37.951706677 151.0
37.964836960 151.0
37.977967243 139.0
37.991097525 128.0
38.004227808 143.0
38.017358091 148.0
38.030488373 124.0
38.043618656 130.0
38.056748939 129.0
38.069879221 142.0
38.083009504 117.0
38.096139787 135.0
38.109270069 139.0
38.122400352 145.0
38.135530635 126.0
38.148660917 135.0
38.161791200 137.0
38.174921483 128.0
38.188051766 145.0
38.201182048 119.0
38.214312331 155.0
38.227442614 129.0
38.240572896 102.0
38.253703179 136.0
38.266833462 138.0
38.279963744 145.0
38.293094027 133.0
38.306224310 148.0
38.319354592 150.0
38.332484875 134.0
38.345615158 133.0
38.358745440 111.0
38.371875723 144.0
38.385006006 139.0
38.398136288 132.0
38.411266571 139.0
38.424396854 121.0
38.437527136 135.0
38.450657419 127.0
38.463787702 145.0
38.476917984 148.0
38.490048267 136.0
38.503178550 137.0
38.516308832 115.0
38.529439115 134.0
38.542569398 133.0
38.555699680 144.0
38.568829963 142.0
38.581960246 122.0
38.595090529 144.0
38.608220811 140.0
38.621351094 161.0
38.634481377 113.0
38.647611659 124.0
38.660741942 136.0
38.673872225 127.0
38.687002507 133.0
38.700132790 118.0
38.713263073 131.0
38.726393355 151.0
38.739523638 127.0
38.752653921 133.0
38.765784203 143.0
38.778914486 124.0
38.792044769 120.0
38.805175051 107.0
38.818305334 119.0
38.831435617 153.0
38.844565899 141.0
38.857696182 117.0
38.870826465 116.0
38.883956747 143.0
38.897087030 132.0
38.910217313 127.0
38.923347595 126.0
38.936477878 136.0
38.949608161 133.0
38.962738443 130.0
38.975868726 111.0
38.988999009 113.0
39.002129292 109.0
39.015259574 120.0
39.028389857 128.0
39.041520140 115.0
39.054650422 126.0
39.067780705 131.0
39.080910988 108.0
39.094041270 122.0
39.107171553 120.0
39.120301836 105.0
39.133432118 104.0
39.146562401 116.0
39.159692684 110.0
39.172822966 122.0
39.185953249 119.0
39.199083532 114.0
39.212213814 104.0
39.225344097 115.0
39.238474380 136.0
39.251604662 124.0
39.264734945 101.0
39.277865228 117.0
39.290995510 118.0
39.304125793 114.0
39.317256076 116.0
39.330386358 107.0
39.343516641 118.0
39.356646924 125.0
39.369777206 108.0
39.382907489 117.0
39.396037772 134.0
39.409168055 117.0
39.422298337 116.0
39.435428620 128.0
39.448558903 103.0
39.461689185 133.0
39.474819468 128.0
39.487949751 126.0
39.501080033 105.0
39.514210316 112.0
39.527340599 120.0
39.540470881 126.0
39.553601164 121.0
39.566731447 122.0
39.579861729 97.0
39.592992012 125.0
39.606122295 131.0
39.619252577 140.0
39.632382860 129.0
39.645513143 119.0
39.658643425 112.0
39.671773708 107.0
39.684903991 113.0
39.698034273 121.0
39.711164556 108.0
39.724294839 103.0
39.737425121 126.0
39.750555404 122.0
39.763685687 116.0
39.776815969 108.0
39.789946252 118.0
39.803076535 119.0
39.816206818 134.0
39.829337100 125.0
39.842467383 104.0
39.855597666 116.0
39.868727948 120.0
39.881858231 126.0
39.894988514 135.0
39.908118796 123.0
39.921249079 123.0
39.934379362 125.0
39.947509644 109.0
39.960639927 108.0
39.973770210 118.0
39.986900492 112.0
40.000030775 116.0
40.013161058 114.0
40.026291340 118.0
40.039421623 123.0
40.052551906 96.0
40.065682188 133.0
40.078812471 113.0
40.091942754 107.0
40.105073036 116.0
40.118203319 114.0
40.131333602 107.0
40.144463884 108.0
40.157594167 108.0
40.170724450 121.0
40.183854732 111.0
40.196985015 117.0
40.210115298 111.0
40.223245581 130.0
40.236375863 104.0
40.249506146 97.0
40.262636429 117.0
40.275766711 116.0
40.288896994 126.0
40.302027277 115.0
40.315157559 118.0
40.328287842 116.0
40.341418125 114.0
40.354548407 127.0
40.367678690 108.0
40.380808973 128.0
40.393939255 100.0
40.407069538 109.0
40.420199821 102.0
40.433330103 122.0
40.446460386 110.0
40.459590669 107.0
40.472720951 114.0
40.485851234 107.0
40.498981517 127.0
40.512111799 119.0
40.525242082 122.0
40.538372365 129.0
40.551502647 116.0
40.564632930 114.0
40.577763213 127.0
40.590893495 142.0
40.604023778 106.0
40.617154061 118.0
40.630284344 137.0
40.643414626 115.0
40.656544909 114.0
40.669675192 104.0
40.682805474 125.0
40.695935757 137.0
40.709066040 119.0
40.722196322 115.0
40.735326605 117.0
40.748456888 110.0
40.761587170 111.0
40.774717453 128.0
40.787847736 121.0
40.800978018 119.0
40.814108301 120.0
40.827238584 110.0
40.840368866 102.0
40.853499149 118.0
40.866629432 98.0
40.879759714 143.0
40.892889997 128.0
40.906020280 132.0
40.919150562 123.0
40.932280845 109.0
40.945411128 142.0
40.958541410 126.0
40.971671693 116.0
40.984801976 144.0
40.997932258 122.0
41.011062541 128.0
41.024192824 123.0
41.037323107 111.0
41.050453389 128.0
41.063583672 147.0
41.076713955 141.0
41.089844237 126.0
41.102974520 119.0
41.116104803 113.0
41.129235085 118.0
41.142365368 140.0
41.155495651 116.0
41.168625933 119.0
41.181756216 131.0
41.194886499 146.0
41.208016781 133.0
41.221147064 126.0
41.234277347 158.0
41.247407629 137.0
41.260537912 133.0
41.273668195 117.0
41.286798477 127.0
41.299928760 137.0
41.313059043 132.0
41.326189325 135.0
41.339319608 125.0
41.352449891 123.0
41.365580173 146.0
41.378710456 143.0
41.391840739 129.0
41.404971021 114.0
41.418101304 140.0
41.431231587 150.0
41.444361870 176.0
41.457492152 161.0
41.470622435 141.0
41.483752718 228.0
41.496883000 300.0
41.510013283 695.0
41.523143566 2566.0
41.536273848 9909.0
41.549404131 20774.0
41.562534414 27612.0
41.575664696 26231.0
41.588794979 25471.0
41.601925262 24288.0
41.615055544 24624.0
41.628185827 26353.0
41.641316110 28367.0
41.654446392 29516.0
41.667576675 27886.0
41.680706958 26032.0
41.693837240 27371.0
41.706967523 29509.0
41.720097806 28826.0
41.733228088 30886.0
41.746358371 29482.0
41.759488654 27453.0
41.772618936 19132.0
41.785749219 9427.0
41.798879502 2510.0
41.812009784 701.0
41.825140067 378.0
41.838270350 256.0
41.851400633 215.0
41.864530915 178.0
41.877661198 163.0
41.890791481 157.0
41.903921763 159.0
41.917052046 150.0
41.930182329 154.0
41.943312611 141.0
41.956442894 139.0
41.969573177 140.0
41.982703459 143.0
41.995833742 137.0
42.008964025 137.0
42.022094307 128.0
42.035224590 141.0
42.048354873 135.0
42.061485155 143.0
42.074615438 131.0
42.087745721 127.0
42.100876003 164.0
42.114006286 131.0
42.127136569 129.0
42.140266851 130.0
42.153397134 117.0
42.166527417 125.0
42.179657699 144.0
42.192787982 137.0
42.205918265 114.0
42.219048547 128.0
42.232178830 131.0
42.245309113 121.0
42.258439395 139.0
42.271569678 104.0
42.284699961 117.0
42.297830244 120.0
42.310960526 110.0
42.324090809 127.0
42.337221092 104.0
42.350351374 125.0
42.363481657 112.0
42.376611940 107.0
42.389742222 119.0
42.402872505 114.0
42.416002788 94.0
42.429133070 113.0
42.442263353 102.0
42.455393636 106.0
42.468523918 107.0
42.481654201 121.0
42.494784484 123.0
42.507914766 106.0
42.521045049 97.0
42.534175332 120.0
42.547305614 111.0
42.560435897 137.0
42.573566180 126.0
42.586696462 114.0
42.599826745 126.0
42.612957028 103.0
42.626087310 129.0
42.639217593 133.0
42.652347876 135.0
42.665478158 102.0
42.678608441 114.0
42.691738724 110.0
42.704869007 105.0
42.717999289 124.0
42.731129572 111.0
42.744259855 127.0
42.757390137 90.0
42.770520420 116.0
42.783650703 111.0
42.796780985 120.0
42.809911268 116.0
42.823041551 118.0
42.836171833 119.0
42.849302116 156.0
42.862432399 111.0
42.875562681 116.0
42.888692964 129.0
42.901823247 114.0
42.914953529 110.0
42.928083812 108.0
42.941214095 123.0
42.954344377 122.0
42.967474660 125.0
42.980604943 127.0
42.993735225 152.0
43.006865508 111.0
43.019995791 150.0
43.033126073 118.0
43.046256356 110.0
43.059386639 149.0
43.072516921 118.0
43.085647204 112.0
43.098777487 109.0
43.111907770 148.0
43.125038052 121.0
43.138168335 122.0
43.151298618 143.0
43.164428900 112.0
43.177559183 129.0
43.190689466 149.0
43.203819748 122.0
43.216950031 123.0
43.230080314 124.0
43.243210596 144.0
43.256340879 116.0
43.269471162 128.0
43.282601444 115.0
43.295731727 122.0
43.308862010 131.0
43.321992292 138.0
43.335122575 129.0
43.348252858 129.0
43.361383140 116.0
43.374513423 146.0
43.387643706 141.0
43.400773988 155.0
43.413904271 126.0
43.427034554 163.0
43.440164836 124.0
43.453295119 143.0
43.466425402 139.0
43.479555684 136.0
43.492685967 149.0
43.505816250 123.0
43.518946533 126.0
43.532076815 149.0
43.545207098 147.0
43.558337381 129.0
43.571467663 165.0
43.584597946 162.0
43.597728229 148.0
43.610858511 162.0
43.623988794 157.0
43.637119077 150.0
43.650249359 165.0
43.663379642 156.0
43.676509925 170.0
43.689640207 173.0
43.702770490 175.0
43.715900773 187.0
43.729031055 168.0
43.742161338 187.0
43.755291621 177.0
43.768421903 200.0
43.781552186 229.0
43.794682469 226.0
43.807812751 195.0
43.820943034 230.0
43.834073317 241.0
43.847203599 271.0
43.860333882 227.0
43.873464165 263.0
43.886594447 278.0
43.899724730 296.0
43.912855013 313.0
43.925985296 302.0
43.939115578 286.0
43.952245861 341.0
43.965376144 372.0
43.978506426 397.0
43.991636709 380.0
44.004766992 425.0
44.017897274 461.0
44.031027557 485.0
44.044157840 480.0
44.057288122 535.0
44.070418405 564.0
44.083548688 602.0
44.096678970 616.0
44.109809253 640.0
44.122939536 666.0
44.136069818 716.0
44.149200101 745.0
44.162330384 765.0
44.175460666 800.0
44.188590949 804.0
44.201721232 834.0
44.214851514 842.0
44.227981797 881.0
44.241112080 929.0
44.254242362 958.0
44.267372645 960.0
44.280502928 899.0
44.293633210 947.0
44.306763493 910.0
44.319893776 905.0
44.333024059 915.0
44.346154341 913.0
44.359284624 919.0
44.372414907 868.0
44.385545189 904.0
44.398675472 832.0
44.411805755 759.0
44.424936037 722.0
44.438066320 747.0
44.451196603 692.0
44.464326885 692.0
44.477457168 569.0
44.490587451 622.0
44.503717733 569.0
44.516848016 592.0
44.529978299 509.0
44.543108581 507.0
44.556238864 461.0
44.569369147 424.0
44.582499429 389.0
44.595629712 363.0
44.608759995 345.0
44.621890277 364.0
44.635020560 325.0
44.648150843 310.0
44.661281125 248.0
44.674411408 260.0
44.687541691 268.0
44.700671973 290.0
44.713802256 247.0
44.726932539 223.0
44.740062822 242.0
44.753193104 213.0
44.766323387 214.0
44.779453670 197.0
44.792583952 210.0
44.805714235 173.0
44.818844518 165.0
44.831974800 190.0
44.845105083 163.0
44.858235366 174.0
44.871365648 165.0
44.884495931 146.0
44.897626214 136.0
44.910756496 149.0
44.923886779 138.0
44.937017062 152.0
44.950147344 153.0
44.963277627 139.0
44.976407910 143.0
44.989538192 132.0
45.002668475 134.0
45.015798758 136.0
45.028929040 134.0
45.042059323 133.0
45.055189606 113.0
45.068319888 148.0
45.081450171 123.0
45.094580454 126.0
45.107710736 132.0
45.120841019 116.0
45.133971302 112.0
45.147101585 112.0
45.160231867 120.0
45.173362150 137.0
45.186492433 120.0
45.199622715 122.0
45.212752998 126.0
45.225883281 132.0
45.239013563 117.0
45.252143846 146.0
45.265274129 106.0
45.278404411 107.0
45.291534694 107.0
45.304664977 122.0
45.317795259 113.0
45.330925542 123.0
45.344055825 107.0
45.357186107 97.0
45.370316390 100.0
45.383446673 109.0
45.396576955 105.0
45.409707238 138.0
45.422837521 118.0
45.435967803 112.0
45.449098086 114.0
45.462228369 117.0
45.475358651 105.0
45.488488934 117.0
45.501619217 114.0
45.514749499 129.0
45.527879782 117.0
45.541010065 109.0
45.554140348 126.0
45.567270630 111.0
45.580400913 107.0
45.593531196 91.0
45.606661478 102.0
45.619791761 107.0
45.632922044 104.0
45.646052326 104.0
45.659182609 108.0
45.672312892 103.0
45.685443174 121.0
45.698573457 124.0
45.711703740 119.0
45.724834022 114.0
45.737964305 106.0
45.751094588 114.0
45.764224870 104.0
45.777355153 111.0
45.790485436 104.0
45.803615718 117.0
45.816746001 111.0
45.829876284 105.0
45.843006566 113.0
45.856136849 105.0
45.869267132 117.0
45.882397414 105.0
45.895527697 97.0
45.908657980 94.0
45.921788262 99.0
45.934918545 106.0
45.948048828 120.0
45.961179111 114.0
45.974309393 115.0
45.987439676 120.0
46.000569959 113.0
46.013700241 103.0
46.026830524 124.0
46.039960807 98.0
46.053091089 103.0
46.066221372 119.0
46.079351655 113.0
46.092481937 109.0
46.105612220 111.0
46.118742503 107.0
46.131872785 114.0
46.145003068 137.0
46.158133351 113.0
46.171263633 126.0
46.184393916 102.0
46.197524199 127.0
46.210654481 111.0
46.223784764 113.0
46.236915047 134.0
46.250045329 124.0
46.263175612 109.0
46.276305895 112.0
46.289436177 107.0
46.302566460 121.0
46.315696743 116.0
46.328827025 105.0
46.341957308 113.0
46.355087591 97.0
46.368217874 90.0
46.381348156 112.0
46.394478439 116.0
46.407608722 106.0
46.420739004 111.0
46.433869287 122.0
46.446999570 91.0
46.460129852 127.0
46.473260135 104.0
46.486390418 122.0
46.499520700 116.0
46.512650983 117.0
46.525781266 122.0
46.538911548 105.0
46.552041831 98.0
46.565172114 124.0
46.578302396 121.0
46.591432679 100.0
46.604562962 111.0
46.617693244 93.0
46.630823527 97.0
46.643953810 110.0
46.657084092 116.0
46.670214375 109.0
46.683344658 120.0
46.696474940 110.0
46.709605223 103.0
46.722735506 103.0
46.735865788 116.0
46.748996071 125.0
46.762126354 135.0
46.775256636 97.0
46.788386919 111.0
46.801517202 103.0
46.814647485 108.0
46.827777767 118.0
46.840908050 106.0
46.854038333 110.0
46.867168615 96.0
46.880298898 98.0
46.893429181 86.0
46.906559463 99.0
46.919689746 109.0
46.932820029 98.0
46.945950311 96.0
46.959080594 105.0
46.972210877 111.0
46.985341159 109.0
46.998471442 106.0
47.011601725 107.0
47.024732007 119.0
47.037862290 122.0
47.050992573 107.0
47.064122855 112.0
47.077253138 95.0
47.090383421 102.0
47.103513703 119.0
47.116643986 102.0
47.129774269 113.0
47.142904551 103.0
47.156034834 100.0
47.169165117 117.0
47.182295399 115.0
47.195425682 102.0
47.208555965 81.0
47.221686248 117.0
47.234816530 114.0
47.247946813 98.0
47.261077096 125.0
47.274207378 94.0
47.287337661 117.0
47.300467944 126.0
47.313598226 121.0
47.326728509 108.0
47.339858792 112.0
47.352989074 106.0
47.366119357 109.0
47.379249640 125.0
47.392379922 103.0
47.405510205 107.0
47.418640488 101.0
47.431770770 121.0
47.444901053 110.0
47.458031336 117.0
47.471161618 90.0
47.484291901 122.0
47.497422184 123.0
47.510552466 122.0
47.523682749 111.0
47.536813032 110.0
47.549943314 120.0
47.563073597 100.0
47.576203880 86.0
47.589334162 113.0
47.602464445 118.0
47.615594728 105.0
47.628725011 108.0
47.641855293 105.0
47.654985576 105.0
47.668115859 110.0
47.681246141 99.0
47.694376424 106.0
47.707506707 112.0
47.720636989 125.0
47.733767272 96.0
47.746897555 103.0
47.760027837 102.0
47.773158120 101.0
47.786288403 101.0
47.799418685 114.0
47.812548968 113.0
47.825679251 112.0
47.838809533 106.0
47.851939816 97.0
47.865070099 104.0
47.878200381 95.0
47.891330664 118.0
47.904460947 109.0
47.917591229 129.0
47.930721512 112.0
47.943851795 96.0
47.956982077 115.0
47.970112360 117.0
47.983242643 103.0
47.996372925 104.0
48.009503208 102.0
48.022633491 92.0
48.035763774 97.0
48.048894056 115.0
48.062024339 113.0
48.075154622 107.0
48.088284904 102.0
48.101415187 114.0
48.114545470 96.0
48.127675752 118.0
48.140806035 124.0
48.153936318 102.0
48.167066600 111.0
48.180196883 122.0
48.193327166 99.0
48.206457448 104.0
48.219587731 120.0
48.232718014 120.0
48.245848296 104.0
48.258978579 119.0
48.272108862 106.0
48.285239144 97.0
48.298369427 97.0
48.311499710 113.0
48.324629992 103.0
48.337760275 112.0
48.350890558 111.0
48.364020840 95.0
48.377151123 129.0
48.390281406 121.0
48.403411688 122.0
48.416541971 111.0
48.429672254 103.0
48.442802537 117.0
48.455932819 98.0
48.469063102 101.0
48.482193385 129.0
48.495323667 100.0
48.508453950 96.0
48.521584233 117.0
48.534714515 95.0
48.547844798 123.0
48.560975081 118.0
48.574105363 112.0
48.587235646 96.0
48.600365929 96.0
48.613496211 124.0
48.626626494 97.0
48.639756777 88.0
48.652887059 107.0
48.666017342 103.0
48.679147625 109.0
48.692277907 128.0
48.705408190 111.0
48.718538473 109.0
48.731668755 116.0
48.744799038 121.0
48.757929321 95.0
48.771059603 118.0
48.784189886 124.0
48.797320169 114.0
48.810450451 101.0
48.823580734 103.0
48.836711017 97.0
48.849841300 112.0
48.862971582 104.0
48.876101865 110.0
48.889232148 94.0
48.902362430 96.0
48.915492713 111.0
48.928622996 97.0
48.941753278 94.0
48.954883561 105.0
48.968013844 120.0
48.981144126 108.0
48.994274409 95.0
49.007404692 107.0
49.020534974 104.0
49.033665257 108.0
49.046795540 126.0
49.059925822 102.0
49.073056105 114.0
49.086186388 122.0
49.099316670 118.0
49.112446953 102.0
49.125577236 110.0
49.138707518 100.0
49.151837801 123.0
49.164968084 115.0
49.178098366 100.0
49.191228649 125.0
49.204358932 91.0
49.217489214 98.0
49.230619497 104.0
49.243749780 128.0
49.256880063 130.0
49.270010345 107.0
49.283140628 109.0
49.296270911 97.0
49.309401193 89.0
49.322531476 111.0
49.335661759 104.0
49.348792041 114.0
49.361922324 102.0
49.375052607 96.0
49.388182889 104.0
49.401313172 100.0
49.414443455 104.0
49.427573737 114.0
49.440704020 94.0
49.453834303 99.0
49.466964585 103.0
49.480094868 92.0
49.493225151 106.0
49.506355433 104.0
49.519485716 118.0
49.532615999 123.0
49.545746281 113.0
49.558876564 105.0
49.572006847 110.0
49.585137129 104.0
49.598267412 101.0
49.611397695 131.0
49.624527977 111.0
49.637658260 105.0
49.650788543 93.0
49.663918826 103.0
49.677049108 100.0
49.690179391 94.0
49.703309674 107.0
49.716439956 110.0
49.729570239 117.0
49.742700522 107.0
49.755830804 102.0
49.768961087 107.0
49.782091370 111.0
49.795221652 97.0
49.808351935 100.0
49.821482218 103.0
49.834612500 101.0
49.847742783 86.0
49.860873066 103.0
49.874003348 103.0
49.887133631 107.0
49.900263914 122.0
49.913394196 90.0
49.926524479 100.0
49.939654762 99.0
49.952785044 108.0
49.965915327 99.0
49.979045610 102.0
49.992175892 103.0
50.005306175 104.0
50.018436458 101.0
50.031566740 105.0
50.044697023 101.0
50.057827306 110.0
50.070957589 111.0
50.084087871 90.0
50.097218154 99.0
50.110348437 116.0
50.123478719 112.0
50.136609002 98.0
50.149739285 103.0
50.162869567 102.0
50.175999850 113.0
50.189130133 119.0
50.202260415 116.0
50.215390698 109.0
50.228520981 118.0
50.241651263 96.0
50.254781546 103.0
50.267911829 109.0
50.281042111 117.0
50.294172394 107.0
50.307302677 97.0
50.320432959 87.0
50.333563242 102.0
50.346693525 91.0
50.359823807 110.0
50.372954090 117.0
50.386084373 102.0
50.399214655 105.0
50.412344938 110.0
50.425475221 120.0
50.438605503 122.0
50.451735786 105.0
50.464866069 112.0
50.477996352 108.0
50.491126634 117.0
50.504256917 96.0
50.517387200 118.0
50.530517482 105.0
50.543647765 88.0
50.556778048 96.0
50.569908330 91.0
50.583038613 105.0
50.596168896 131.0
50.609299178 113.0
50.622429461 107.0
50.635559744 116.0
50.648690026 126.0
50.661820309 107.0
50.674950592 117.0
50.688080874 119.0
50.701211157 121.0
50.714341440 102.0
50.727471722 102.0
50.740602005 121.0
50.753732288 108.0
50.766862570 105.0
50.779992853 111.0
50.793123136 114.0
50.806253418 131.0
50.819383701 106.0
50.832513984 123.0
50.845644266 91.0
50.858774549 103.0
50.871904832 100.0
50.885035114 122.0
50.898165397 117.0
50.911295680 121.0
50.924425963 93.0
50.937556245 103.0
50.950686528 115.0
50.963816811 112.0
50.976947093 96.0
50.990077376 107.0
51.003207659 92.0
51.016337941 86.0
51.029468224 99.0
51.042598507 117.0
51.055728789 138.0
51.068859072 109.0
51.081989355 93.0
51.095119637 96.0
51.108249920 123.0
51.121380203 98.0
51.134510485 94.0
51.147640768 105.0
51.160771051 109.0
51.173901333 117.0
51.187031616 96.0
51.200161899 122.0
51.213292181 113.0
51.226422464 128.0
51.239552747 118.0
51.252683029 102.0
51.265813312 117.0
51.278943595 102.0
51.292073877 128.0
51.305204160 104.0
51.318334443 97.0
51.331464726 95.0
51.344595008 97.0
51.357725291 108.0
51.370855574 111.0
51.383985856 129.0
51.397116139 85.0
51.410246422 94.0
51.423376704 86.0
51.436506987 106.0
51.449637270 102.0
51.462767552 109.0
51.475897835 108.0
51.489028118 91.0
51.502158400 123.0
51.515288683 91.0
51.528418966 107.0
51.541549248 107.0
51.554679531 107.0
51.567809814 101.0
51.580940096 110.0
51.594070379 115.0
51.607200662 116.0
51.620330944 107.0
51.633461227 105.0
51.646591510 113.0
51.659721792 122.0
51.672852075 118.0
51.685982358 106.0
51.699112640 101.0
51.712242923 84.0
51.725373206 97.0
51.738503489 101.0
51.751633771 112.0
51.764764054 108.0
51.777894337 96.0
51.791024619 112.0
51.804154902 110.0
51.817285185 104.0
51.830415467 112.0
51.843545750 112.0
51.856676033 101.0
51.869806315 88.0
51.882936598 106.0
51.896066881 103.0
51.909197163 112.0
51.922327446 108.0
51.935457729 96.0
51.948588011 117.0
51.961718294 100.0
51.974848577 104.0
51.987978859 109.0
52.001109142 89.0
52.014239425 104.0
52.027369707 114.0
52.040499990 115.0
52.053630273 103.0
52.066760555 105.0
52.079890838 121.0
52.093021121 107.0
52.106151403 113.0
52.119281686 103.0
52.132411969 117.0
52.145542252 130.0
52.158672534 105.0
52.171802817 120.0
52.184933100 116.0
52.198063382 100.0
52.211193665 108.0
52.224323948 113.0
52.237454230 102.0
52.250584513 116.0
52.263714796 113.0
52.276845078 117.0
52.289975361 119.0
52.303105644 118.0
52.316235926 99.0
52.329366209 99.0
52.342496492 120.0
52.355626774 112.0
52.368757057 98.0
52.381887340 106.0
52.395017622 101.0
52.408147905 106.0
52.421278188 112.0
52.434408470 101.0
52.447538753 105.0
52.460669036 104.0
52.473799318 109.0
52.486929601 101.0
52.500059884 103.0
52.513190166 117.0
52.526320449 114.0
52.539450732 110.0
52.552581015 111.0
52.565711297 121.0
52.578841580 91.0
52.591971863 116.0
52.605102145 143.0
52.618232428 126.0
52.631362711 109.0
52.644492993 113.0
52.657623276 98.0
52.670753559 111.0
52.683883841 134.0
52.697014124 120.0
52.710144407 122.0
52.723274689 155.0
52.736404972 169.0
52.749535255 195.0
52.762665537 216.0
52.775795820 268.0
52.788926103 294.0
52.802056385 273.0
52.815186668 227.0
52.828316951 267.0
52.841447233 290.0
52.854577516 299.0
52.867707799 312.0
52.880838081 269.0
52.893968364 272.0
52.907098647 304.0
52.920228929 259.0
52.933359212 299.0
52.946489495 271.0
52.959619778 259.0
52.972750060 230.0
52.985880343 208.0
52.999010626 176.0
53.012140908 136.0
53.025271191 151.0
53.038401474 114.0
53.051531756 106.0
53.064662039 123.0
53.077792322 102.0
53.090922604 107.0
53.104052887 121.0
53.117183170 108.0
53.130313452 129.0
53.143443735 110.0
53.156574018 122.0
53.169704300 104.0
53.182834583 116.0
53.195964866 103.0
53.209095148 109.0
53.222225431 126.0
53.235355714 107.0
53.248485996 90.0
53.261616279 113.0
53.274746562 102.0
53.287876844 104.0
53.301007127 108.0
53.314137410 93.0
53.327267692 106.0
53.340397975 101.0
53.353528258 92.0
53.366658541 102.0
53.379788823 114.0
53.392919106 119.0
53.406049389 110.0
53.419179671 90.0
53.432309954 98.0
53.445440237 101.0
53.458570519 119.0
53.471700802 123.0
53.484831085 97.0
53.497961367 121.0
53.511091650 94.0
53.524221933 90.0
53.537352215 101.0
53.550482498 119.0
53.563612781 105.0
53.576743063 124.0
53.589873346 120.0
53.603003629 121.0
53.616133911 112.0
53.629264194 135.0
53.642394477 103.0
53.655524759 107.0
53.668655042 85.0
53.681785325 114.0
53.694915607 115.0
53.708045890 95.0
53.721176173 85.0
53.734306455 106.0
53.747436738 100.0
53.760567021 110.0
53.773697304 99.0
53.786827586 94.0
53.799957869 110.0
53.813088152 116.0
53.826218434 121.0
53.839348717 105.0
53.852479000 119.0
53.865609282 92.0
53.878739565 116.0
53.891869848 115.0
53.905000130 93.0
53.918130413 110.0
53.931260696 113.0
53.944390978 109.0
53.957521261 114.0
53.970651544 104.0
53.983781826 91.0
53.996912109 100.0
54.010042392 106.0
54.023172674 92.0
54.036302957 114.0
54.049433240 109.0
54.062563522 83.0
54.075693805 117.0
54.088824088 90.0
54.101954370 117.0
54.115084653 86.0
54.128214936 102.0
54.141345218 102.0
54.154475501 100.0
54.167605784 106.0
54.180736067 123.0
54.193866349 88.0
54.206996632 97.0
54.220126915 100.0
54.233257197 121.0
54.246387480 90.0
54.259517763 84.0
54.272648045 103.0
54.285778328 94.0
54.298908611 105.0
54.312038893 112.0
54.325169176 111.0
54.338299459 89.0
54.351429741 117.0
54.364560024 99.0
54.377690307 99.0
54.390820589 96.0
54.403950872 93.0
54.417081155 106.0
54.430211437 99.0
54.443341720 86.0
54.456472003 100.0
54.469602285 100.0
54.482732568 95.0
54.495862851 100.0
54.508993133 92.0
54.522123416 118.0
54.535253699 112.0
54.548383981 102.0
54.561514264 103.0
54.574644547 94.0
54.587774830 99.0
54.600905112 102.0
54.614035395 107.0
54.627165678 103.0
54.640295960 92.0
54.653426243 97.0
54.666556526 115.0
54.679686808 88.0
54.692817091 108.0
54.705947374 105.0
54.719077656 108.0
54.732207939 90.0
54.745338222 112.0
54.758468504 123.0
54.771598787 110.0
54.784729070 98.0
54.797859352 107.0
54.810989635 106.0
54.824119918 110.0
54.837250200 134.0
54.850380483 111.0
54.863510766 96.0
54.876641048 107.0
54.889771331 117.0
54.902901614 98.0
54.916031896 113.0
54.929162179 93.0
54.942292462 97.0
54.955422744 121.0
54.968553027 109.0
54.981683310 101.0
54.994813593 113.0
55.007943875 99.0
55.021074158 104.0
55.034204441 103.0
55.047334723 117.0
55.060465006 93.0
55.073595289 102.0
55.086725571 104.0
55.099855854 100.0
55.112986137 113.0
55.126116419 89.0
55.139246702 109.0
55.152376985 95.0
55.165507267 119.0
55.178637550 118.0
55.191767833 102.0
55.204898115 114.0
55.218028398 108.0
55.231158681 122.0
55.244288963 106.0
55.257419246 119.0
55.270549529 96.0
55.283679811 100.0
55.296810094 112.0
55.309940377 105.0
55.323070659 116.0
55.336200942 100.0
55.349331225 101.0
55.362461507 104.0
55.375591790 109.0
55.388722073 114.0
55.401852355 92.0
55.414982638 106.0
55.428112921 114.0
55.441243204 111.0
55.454373486 103.0
55.467503769 97.0
55.480634052 110.0
55.493764334 100.0
55.506894617 115.0
55.520024900 111.0
55.533155182 109.0
55.546285465 106.0
55.559415748 111.0
55.572546030 122.0
55.585676313 102.0
55.598806596 104.0
55.611936878 109.0
55.625067161 94.0
55.638197444 111.0
55.651327726 114.0
55.664458009 128.0
55.677588292 101.0
55.690718574 103.0
55.703848857 96.0
55.716979140 96.0
55.730109422 89.0
55.743239705 100.0
55.756369988 97.0
55.769500270 114.0
55.782630553 94.0
55.795760836 107.0
55.808891118 119.0
55.822021401 97.0
55.835151684 108.0
55.848281967 101.0
55.861412249 100.0
55.874542532 106.0
55.887672815 121.0
55.900803097 108.0
55.913933380 94.0
55.927063663 98.0
55.940193945 98.0
55.953324228 112.0
55.966454511 102.0
55.979584793 106.0
55.992715076 88.0
56.005845359 82.0
56.018975641 110.0
56.032105924 121.0
56.045236207 104.0
56.058366489 96.0
56.071496772 89.0
56.084627055 108.0
56.097757337 112.0
56.110887620 119.0
56.124017903 109.0
56.137148185 99.0
56.150278468 106.0
56.163408751 102.0
56.176539033 106.0
56.189669316 97.0
56.202799599 120.0
56.215929881 106.0
56.229060164 116.0
56.242190447 107.0
56.255320730 113.0
56.268451012 105.0
56.281581295 101.0
56.294711578 106.0
56.307841860 95.0
56.320972143 103.0
56.334102426 92.0
56.347232708 110.0
56.360362991 91.0
56.373493274 122.0
56.386623556 103.0
56.399753839 99.0
56.412884122 93.0
56.426014404 106.0
56.439144687 110.0
56.452274970 109.0
56.465405252 114.0
56.478535535 93.0
56.491665818 93.0
56.504796100 110.0
56.517926383 85.0
56.531056666 103.0
56.544186948 97.0
56.557317231 91.0
56.570447514 118.0
56.583577796 111.0
56.596708079 115.0
56.609838362 87.0
56.622968644 120.0
56.636098927 99.0
56.649229210 112.0
56.662359493 104.0
56.675489775 101.0
56.688620058 94.0
56.701750341 113.0
56.714880623 114.0
56.728010906 97.0
56.741141189 91.0
56.754271471 93.0
56.767401754 97.0
56.780532037 105.0
56.793662319 125.0
56.806792602 104.0
56.819922885 102.0
56.833053167 103.0
56.846183450 107.0
56.859313733 110.0
56.872444015 103.0
56.885574298 94.0
56.898704581 101.0
56.911834863 101.0
56.924965146 101.0
56.938095429 116.0
56.951225711 110.0
56.964355994 102.0
56.977486277 80.0
56.990616559 116.0
57.003746842 108.0
57.016877125 106.0
57.030007407 107.0
57.043137690 126.0
57.056267973 94.0
57.069398256 98.0
57.082528538 94.0
57.095658821 104.0
57.108789104 108.0
57.121919386 101.0
57.135049669 87.0
57.148179952 94.0
57.161310234 107.0
57.174440517 104.0
57.187570800 113.0
57.200701082 112.0
57.213831365 96.0
57.226961648 102.0
57.240091930 101.0
57.253222213 112.0
57.266352496 89.0
57.279482778 82.0
57.292613061 100.0
57.305743344 113.0
57.318873626 112.0
57.332003909 101.0
57.345134192 112.0
57.358264474 113.0
57.371394757 95.0
57.384525040 100.0
57.397655322 101.0
57.410785605 93.0
57.423915888 100.0
57.437046170 98.0
57.450176453 94.0
57.463306736 102.0
57.476437019 94.0
57.489567301 113.0
57.502697584 99.0
57.515827867 115.0
57.528958149 98.0
57.542088432 109.0
57.555218715 92.0
57.568348997 106.0
57.581479280 126.0
57.594609563 106.0
57.607739845 102.0
57.620870128 96.0
57.634000411 99.0
57.647130693 119.0
57.660260976 116.0
57.673391259 107.0
57.686521541 98.0
57.699651824 102.0
57.712782107 110.0
57.725912389 90.0
57.739042672 92.0
57.752172955 103.0
57.765303237 95.0
57.778433520 98.0
57.791563803 102.0
57.804694085 91.0
57.817824368 97.0
57.830954651 115.0
57.844084933 102.0
57.857215216 100.0
57.870345499 111.0
57.883475782 116.0
57.896606064 104.0
57.909736347 99.0
57.922866630 102.0
57.935996912 108.0
57.949127195 96.0
57.962257478 111.0
57.975387760 100.0
57.988518043 104.0
58.001648326 98.0
58.014778608 106.0
58.027908891 107.0
58.041039174 112.0
58.054169456 108.0
58.067299739 94.0
58.080430022 91.0
58.093560304 100.0
58.106690587 97.0
58.119820870 109.0
58.132951152 101.0
58.146081435 99.0
58.159211718 116.0
58.172342000 118.0
58.185472283 106.0
58.198602566 94.0
58.211732848 106.0
58.224863131 93.0
58.237993414 94.0
58.251123696 107.0
58.264253979 101.0
58.277384262 98.0
58.290514545 96.0
58.303644827 123.0
58.316775110 112.0
58.329905393 101.0
58.343035675 100.0
58.356165958 94.0
58.369296241 96.0
58.382426523 106.0
58.395556806 129.0
58.408687089 105.0
58.421817371 103.0
58.434947654 119.0
58.448077937 88.0
58.461208219 100.0
58.474338502 100.0
58.487468785 93.0
58.500599067 103.0
58.513729350 94.0
58.526859633 111.0
58.539989915 109.0
58.553120198 95.0
58.566250481 128.0
58.579380763 89.0
58.592511046 96.0
58.605641329 88.0
58.618771611 102.0
58.631901894 108.0
58.645032177 105.0
58.658162459 88.0
58.671292742 122.0
58.684423025 111.0
58.697553308 121.0
58.710683590 114.0
58.723813873 110.0
58.736944156 115.0
58.750074438 125.0
58.763204721 105.0
58.776335004 96.0
58.789465286 92.0
58.802595569 107.0
58.815725852 102.0
58.828856134 105.0
58.841986417 115.0
58.855116700 109.0
58.868246982 107.0
58.881377265 125.0
58.894507548 105.0
58.907637830 96.0
58.920768113 118.0
58.933898396 96.0
58.947028678 123.0
58.960158961 110.0
58.973289244 120.0
58.986419526 102.0
58.999549809 89.0
59.012680092 102.0
59.025810374 114.0
59.038940657 98.0
59.052070940 106.0
59.065201222 108.0
59.078331505 107.0
59.091461788 93.0
59.104592071 95.0
59.117722353 116.0
59.130852636 91.0
59.143982919 124.0
59.157113201 136.0
59.170243484 99.0
59.183373767 106.0
59.196504049 113.0
59.209634332 90.0
59.222764615 101.0
59.235894897 100.0
59.249025180 101.0
59.262155463 115.0
59.275285745 88.0
59.288416028 114.0
59.301546311 103.0
59.314676593 100.0
59.327806876 109.0
59.340937159 102.0
59.354067441 126.0
59.367197724 94.0
59.380328007 92.0
59.393458289 113.0
59.406588572 93.0
59.419718855 90.0
59.432849137 108.0
59.445979420 108.0
59.459109703 100.0
59.472239985 110.0
59.485370268 109.0
59.498500551 117.0
59.511630833 101.0
59.524761116 99.0
59.537891399 88.0
59.551021682 96.0
59.564151964 117.0
59.577282247 96.0
59.590412530 91.0
59.603542812 114.0
59.616673095 138.0
59.629803378 117.0
59.642933660 112.0
59.656063943 103.0
59.669194226 88.0
59.682324508 108.0
59.695454791 106.0
59.708585074 112.0
59.721715356 106.0
59.734845639 108.0
59.747975922 111.0
59.761106204 115.0
59.774236487 111.0
59.787366770 119.0
59.800497052 91.0
59.813627335 99.0
59.826757618 100.0
59.839887900 94.0
59.853018183 104.0
59.866148466 118.0
59.879278748 107.0
59.892409031 97.0
59.905539314 93.0
59.918669596 113.0
59.931799879 97.0
59.944930162 100.0
59.958060445 110.0
59.971190727 92.0
59.984321010 89.0
59.997451293 113.0
60.010581575 105.0
60.023711858 119.0
60.036842141 101.0
60.049972423 116.0
60.063102706 103.0
60.076232989 108.0
60.089363271 115.0
60.102493554 95.0
60.115623837 102.0
60.128754119 83.0
60.141884402 115.0
60.155014685 83.0
60.168144967 100.0
60.181275250 102.0
60.194405533 81.0
60.207535815 104.0
60.220666098 132.0
60.233796381 101.0
60.246926663 95.0
60.260056946 95.0
60.273187229 95.0
60.286317511 113.0
60.299447794 119.0
60.312578077 91.0
60.325708359 109.0
60.338838642 100.0
60.351968925 102.0
60.365099208 103.0
60.378229490 107.0
60.391359773 104.0
60.404490056 103.0
60.417620338 85.0
60.430750621 94.0
60.443880904 102.0
60.457011186 99.0
60.470141469 86.0
60.483271752 102.0
60.496402034 91.0
60.509532317 102.0
60.522662600 120.0
60.535792882 91.0
60.548923165 114.0
60.562053448 103.0
60.575183730 113.0
60.588314013 109.0
60.601444296 114.0
60.614574578 109.0
60.627704861 92.0
60.640835144 111.0
60.653965426 117.0
60.667095709 106.0
60.680225992 100.0
60.693356274 103.0
60.706486557 111.0
60.719616840 110.0
60.732747122 97.0
60.745877405 112.0
60.759007688 103.0
60.772137971 101.0
60.785268253 105.0
60.798398536 85.0
60.811528819 93.0
60.824659101 92.0
60.837789384 126.0
60.850919667 93.0
60.864049949 126.0
60.877180232 97.0
60.890310515 103.0
60.903440797 104.0
60.916571080 110.0
60.929701363 96.0
60.942831645 89.0
60.955961928 90.0
60.969092211 100.0
60.982222493 109.0
60.995352776 116.0
61.008483059 113.0
61.021613341 89.0
61.034743624 108.0
61.047873907 79.0
61.061004189 107.0
61.074134472 100.0
61.087264755 117.0
61.100395037 102.0
61.113525320 101.0
61.126655603 94.0
61.139785885 86.0
61.152916168 99.0
61.166046451 104.0
61.179176734 92.0
61.192307016 109.0
61.205437299 103.0
61.218567582 119.0
61.231697864 100.0
61.244828147 93.0
61.257958430 99.0
61.271088712 97.0
61.284218995 88.0
61.297349278 91.0
61.310479560 112.0
61.323609843 112.0
61.336740126 91.0
61.349870408 110.0
61.363000691 87.0
61.376130974 96.0
61.389261256 102.0
61.402391539 118.0
61.415521822 100.0
61.428652104 95.0
61.441782387 95.0
61.454912670 101.0
61.468042952 92.0
61.481173235 90.0
61.494303518 103.0
61.507433800 112.0
61.520564083 91.0
61.533694366 110.0
61.546824648 90.0
61.559954931 91.0
61.573085214 104.0
61.586215497 102.0
61.599345779 85.0
61.612476062 110.0
61.625606345 88.0
61.638736627 88.0
61.651866910 109.0
61.664997193 106.0
61.678127475 105.0
61.691257758 90.0
61.704388041 98.0
61.717518323 110.0
61.730648606 85.0
61.743778889 96.0
61.756909171 108.0
61.770039454 106.0
61.783169737 122.0
61.796300019 89.0
61.809430302 100.0
61.822560585 104.0
61.835690867 89.0
61.848821150 93.0
61.861951433 97.0
61.875081715 101.0
61.888211998 105.0
61.901342281 111.0
61.914472563 104.0
61.927602846 108.0
61.940733129 90.0
61.953863411 126.0
61.966993694 98.0
61.980123977 96.0
61.993254260 95.0
62.006384542 100.0
62.019514825 93.0
62.032645108 89.0
62.045775390 100.0
62.058905673 91.0
62.072035956 107.0
62.085166238 107.0
62.098296521 85.0
62.111426804 108.0
62.124557086 103.0
62.137687369 103.0
62.150817652 99.0
62.163947934 107.0
62.177078217 98.0
62.190208500 112.0
62.203338782 114.0
62.216469065 96.0
62.229599348 105.0
62.242729630 126.0
62.255859913 112.0
62.268990196 96.0
62.282120478 96.0
62.295250761 101.0
62.308381044 108.0
62.321511326 89.0
62.334641609 89.0
62.347771892 121.0
62.360902174 118.0
62.374032457 105.0
62.387162740 108.0
62.400293023 97.0
62.413423305 102.0
62.426553588 99.0
62.439683871 106.0
62.452814153 86.0
62.465944436 94.0
62.479074719 98.0
62.492205001 95.0
62.505335284 106.0
62.518465567 90.0
62.531595849 105.0
62.544726132 105.0
62.557856415 80.0
62.570986697 111.0
62.584116980 98.0
62.597247263 95.0
62.610377545 99.0
62.623507828 83.0
62.636638111 95.0
62.649768393 99.0
62.662898676 100.0
62.676028959 87.0
62.689159241 126.0
62.702289524 98.0
62.715419807 106.0
62.728550089 106.0
62.741680372 99.0
62.754810655 102.0
62.767940937 98.0
62.781071220 95.0
62.794201503 94.0
62.807331786 123.0
62.820462068 103.0
62.833592351 104.0
62.846722634 107.0
62.859852916 106.0
62.872983199 91.0
62.886113482 110.0
62.899243764 101.0
62.912374047 97.0
62.925504330 131.0
62.938634612 94.0
62.951764895 116.0
62.964895178 117.0
62.978025460 101.0
62.991155743 96.0
63.004286026 105.0
63.017416308 94.0
63.030546591 87.0
63.043676874 83.0
63.056807156 95.0
63.069937439 103.0
63.083067722 108.0
63.096198004 112.0
63.109328287 92.0
63.122458570 88.0
63.135588852 105.0
63.148719135 102.0
63.161849418 107.0
63.174979700 104.0
63.188109983 99.0
63.201240266 85.0
63.214370549 108.0
63.227500831 98.0
63.240631114 87.0
63.253761397 102.0
63.266891679 98.0
63.280021962 100.0
63.293152245 97.0
63.306282527 106.0
63.319412810 105.0
63.332543093 104.0
63.345673375 92.0
63.358803658 112.0
63.371933941 93.0
63.385064223 100.0
63.398194506 81.0
63.411324789 88.0
63.424455071 107.0
63.437585354 105.0
63.450715637 103.0
63.463845919 93.0
63.476976202 101.0
63.490106485 105.0
63.503236767 116.0
63.516367050 76.0
63.529497333 114.0
63.542627615 94.0
63.555757898 115.0
63.568888181 107.0
63.582018463 125.0
63.595148746 111.0
63.608279029 101.0
63.621409311 125.0
63.634539594 107.0
63.647669877 102.0
63.660800160 111.0
63.673930442 96.0
63.687060725 95.0
63.700191008 97.0
63.713321290 117.0
63.726451573 94.0
63.739581856 127.0
63.752712138 102.0
63.765842421 105.0
63.778972704 110.0
63.792102986 114.0
63.805233269 102.0
63.818363552 89.0
63.831493834 109.0
63.844624117 112.0
63.857754400 109.0
63.870884682 94.0
63.884014965 118.0
63.897145248 107.0
63.910275530 112.0
63.923405813 116.0
63.936536096 101.0
63.949666378 104.0
63.962796661 110.0
63.975926944 110.0
63.989057226 102.0
64.002187509 96.0
64.015317792 109.0
64.028448074 88.0
64.041578357 122.0
64.054708640 124.0
64.067838923 93.0
64.080969205 100.0
64.094099488 120.0
64.107229771 98.0
64.120360053 119.0
64.133490336 119.0
64.146620619 123.0
64.159750901 113.0
64.172881184 130.0
64.186011467 132.0
64.199141749 138.0
64.212272032 136.0
64.225402315 144.0
64.238532597 146.0
64.251662880 139.0
64.264793163 116.0
64.277923445 140.0
64.291053728 137.0
64.304184011 142.0
64.317314293 151.0
64.330444576 127.0
64.343574859 149.0
64.356705141 153.0
64.369835424 156.0
64.382965707 160.0
64.396095989 168.0
64.409226272 168.0
64.422356555 203.0
64.435486837 207.0
64.448617120 185.0
64.461747403 192.0
64.474877686 185.0
64.488007968 211.0
64.501138251 194.0
64.514268534 231.0
64.527398816 221.0
64.540529099 198.0
64.553659382 228.0
64.566789664 200.0
64.579919947 201.0
64.593050230 221.0
64.606180512 221.0
64.619310795 198.0
64.632441078 228.0
64.645571360 175.0
64.658701643 158.0
64.671831926 196.0
64.684962208 198.0
64.698092491 198.0
64.711222774 221.0
64.724353056 216.0
64.737483339 219.0
64.750613622 194.0
64.763743904 197.0
64.776874187 187.0
64.790004470 179.0
64.803134752 154.0
64.816265035 181.0
64.829395318 186.0
64.842525600 172.0
64.855655883 187.0
64.868786166 163.0
64.881916449 160.0
64.895046731 161.0
64.908177014 153.0
64.921307297 139.0
64.934437579 153.0
64.947567862 125.0
64.960698145 121.0
64.973828427 150.0
64.986958710 150.0
65.000088993 148.0
65.013219275 144.0
65.026349558 145.0
65.039479841 134.0
65.052610123 127.0
65.065740406 127.0
65.078870689 127.0
65.092000971 121.0
65.105131254 125.0
65.118261537 119.0
65.131391819 131.0
65.144522102 100.0
65.157652385 106.0
65.170782667 125.0
65.183912950 117.0
65.197043233 109.0
65.210173515 129.0
65.223303798 126.0
65.236434081 101.0
65.249564363 122.0
65.262694646 133.0
65.275824929 101.0
65.288955212 114.0
65.302085494 106.0
65.315215777 116.0
65.328346060 105.0
65.341476342 112.0
65.354606625 100.0
65.367736908 116.0
65.380867190 122.0
65.393997473 85.0
65.407127756 123.0
65.420258038 109.0
65.433388321 119.0
65.446518604 112.0
65.459648886 113.0
65.472779169 118.0
65.485909452 101.0
65.499039734 108.0
65.512170017 105.0
65.525300300 128.0
65.538430582 114.0
65.551560865 113.0
65.564691148 97.0
65.577821430 103.0
65.590951713 108.0
65.604081996 104.0
65.617212278 108.0
65.630342561 98.0
65.643472844 109.0
65.656603126 116.0
65.669733409 98.0
65.682863692 132.0
65.695993975 103.0
65.709124257 109.0
65.722254540 107.0
65.735384823 95.0
65.748515105 102.0
65.761645388 92.0
65.774775671 101.0
65.787905953 117.0
65.801036236 113.0
65.814166519 102.0
65.827296801 104.0
65.840427084 104.0
65.853557367 113.0
65.866687649 130.0
65.879817932 111.0
65.892948215 111.0
65.906078497 107.0
65.919208780 119.0
65.932339063 99.0
65.945469345 90.0
65.958599628 111.0
65.971729911 109.0
65.984860193 113.0
65.997990476 112.0
66.011120759 106.0
66.024251041 111.0
66.037381324 124.0
66.050511607 103.0
66.063641889 100.0
66.076772172 107.0
66.089902455 116.0
66.103032738 114.0
66.116163020 106.0
66.129293303 98.0
66.142423586 105.0
66.155553868 124.0
66.168684151 98.0
66.181814434 97.0
66.194944716 106.0
66.208074999 102.0
66.221205282 100.0
66.234335564 107.0
66.247465847 100.0
66.260596130 103.0
66.273726412 104.0
66.286856695 103.0
66.299986978 108.0
66.313117260 124.0
66.326247543 104.0
66.339377826 87.0
66.352508108 107.0
66.365638391 107.0
66.378768674 88.0
66.391898956 111.0
66.405029239 104.0
66.418159522 114.0
66.431289804 103.0
66.444420087 110.0
66.457550370 94.0
66.470680652 103.0
66.483810935 97.0
66.496941218 99.0
66.510071501 94.0
66.523201783 106.0
66.536332066 98.0
66.549462349 99.0
66.562592631 102.0
66.575722914 102.0
66.588853197 120.0
66.601983479 110.0
66.615113762 116.0
66.628244045 90.0
66.641374327 118.0
66.654504610 108.0
66.667634893 117.0
66.680765175 109.0
66.693895458 97.0
66.707025741 107.0
66.720156023 114.0
66.733286306 88.0
66.746416589 104.0
66.759546871 96.0
66.772677154 103.0
66.785807437 96.0
66.798937719 118.0
66.812068002 97.0
66.825198285 119.0
66.838328567 102.0
66.851458850 101.0
66.864589133 106.0
66.877719415 105.0
66.890849698 109.0
66.903979981 110.0
66.917110264 113.0
66.930240546 108.0
66.943370829 96.0
66.956501112 122.0
66.969631394 96.0
66.982761677 85.0
66.995891960 125.0
67.009022242 103.0
67.022152525 95.0
67.035282808 104.0
67.048413090 112.0
67.061543373 99.0
67.074673656 111.0
67.087803938 99.0
67.100934221 104.0
67.114064504 108.0
67.127194786 114.0
67.140325069 89.0
67.153455352 94.0
67.166585634 115.0
67.179715917 109.0
67.192846200 96.0
67.205976482 109.0
67.219106765 101.0
67.232237048 100.0
67.245367330 125.0
67.258497613 79.0
67.271627896 104.0
67.284758178 105.0
67.297888461 118.0
67.311018744 113.0
67.324149027 120.0
67.337279309 105.0
67.350409592 117.0
67.363539875 113.0
67.376670157 105.0
67.389800440 106.0
67.402930723 120.0
67.416061005 128.0
67.429191288 108.0
67.442321571 85.0
67.455451853 102.0
67.468582136 98.0
67.481712419 121.0
67.494842701 113.0
67.507972984 107.0
67.521103267 96.0
67.534233549 119.0
67.547363832 104.0
67.560494115 104.0
67.573624397 91.0
67.586754680 119.0
67.599884963 94.0
67.613015245 93.0
67.626145528 109.0
67.639275811 113.0
67.652406093 109.0
67.665536376 106.0
67.678666659 126.0
67.691796941 100.0
67.704927224 111.0
67.718057507 121.0
67.731187790 117.0
67.744318072 100.0
67.757448355 119.0
67.770578638 114.0
67.783708920 90.0
67.796839203 97.0
67.809969486 98.0
67.823099768 102.0
67.836230051 110.0
67.849360334 105.0
67.862490616 85.0
67.875620899 102.0
67.888751182 98.0
67.901881464 89.0
67.915011747 107.0
67.928142030 88.0
67.941272312 88.0
67.954402595 104.0
67.967532878 106.0
67.980663160 95.0
67.993793443 92.0
68.006923726 103.0
68.020054008 126.0
68.033184291 98.0
68.046314574 120.0
68.059444856 112.0
68.072575139 87.0
68.085705422 110.0
68.098835704 106.0
68.111965987 96.0
68.125096270 115.0
68.138226552 106.0
68.151356835 107.0
68.164487118 97.0
68.177617401 107.0
68.190747683 107.0
68.203877966 95.0
68.217008249 122.0
68.230138531 97.0
68.243268814 97.0
68.256399097 89.0
68.269529379 91.0
68.282659662 129.0
68.295789945 94.0
68.308920227 117.0
68.322050510 118.0
68.335180793 104.0
68.348311075 106.0
68.361441358 113.0
68.374571641 105.0
68.387701923 123.0
68.400832206 127.0
68.413962489 119.0
68.427092771 103.0
68.440223054 107.0
68.453353337 105.0
68.466483619 107.0
68.479613902 103.0
68.492744185 110.0
68.505874467 107.0
68.519004750 107.0
68.532135033 118.0
68.545265315 108.0
68.558395598 108.0
68.571525881 117.0
68.584656164 105.0
68.597786446 111.0
68.610916729 114.0
68.624047012 98.0
68.637177294 90.0
68.650307577 102.0
68.663437860 93.0
68.676568142 103.0
68.689698425 93.0
68.702828708 110.0
68.715958990 97.0
68.729089273 108.0
68.742219556 105.0
68.755349838 116.0
68.768480121 102.0
68.781610404 99.0
68.794740686 128.0
68.807870969 112.0
68.821001252 94.0
68.834131534 121.0
68.847261817 112.0
68.860392100 113.0
68.873522382 101.0
68.886652665 100.0
68.899782948 110.0
68.912913230 129.0
68.926043513 120.0
68.939173796 105.0
68.952304078 109.0
68.965434361 124.0
68.978564644 105.0
68.991694927 105.0
69.004825209 84.0
69.017955492 113.0
69.031085775 125.0
69.044216057 88.0
69.057346340 103.0
69.070476623 113.0
69.083606905 104.0
69.096737188 115.0
69.109867471 123.0
69.122997753 109.0
69.136128036 103.0
69.149258319 109.0
69.162388601 119.0
69.175518884 113.0
69.188649167 118.0
69.201779449 107.0
69.214909732 122.0
69.228040015 108.0
69.241170297 103.0
69.254300580 108.0
69.267430863 119.0
69.280561145 108.0
69.293691428 99.0
69.306821711 113.0
69.319951993 111.0
69.333082276 114.0
69.346212559 123.0
69.359342841 98.0
69.372473124 94.0
69.385603407 107.0
69.398733690 117.0
69.411863972 114.0
69.424994255 106.0
69.438124538 101.0
69.451254820 119.0
69.464385103 129.0
69.477515386 118.0
69.490645668 106.0
69.503775951 103.0
69.516906234 93.0
69.530036516 115.0
69.543166799 108.0
69.556297082 104.0
69.569427364 92.0
69.582557647 134.0
69.595687930 107.0
69.608818212 108.0
69.621948495 123.0
69.635078778 140.0
69.648209060 129.0
69.661339343 125.0
69.674469626 111.0
69.687599908 112.0
69.700730191 124.0
69.713860474 120.0
69.726990756 124.0
69.740121039 109.0
69.753251322 112.0
69.766381604 117.0
69.779511887 106.0
69.792642170 111.0
69.805772453 110.0
69.818902735 116.0
69.832033018 111.0
69.845163301 111.0
69.858293583 115.0
69.871423866 113.0
69.884554149 112.0
69.897684431 130.0
69.910814714 113.0
69.923944997 120.0
69.937075279 110.0
69.950205562 101.0
69.963335845 136.0
69.976466127 105.0
69.989596410 111.0
